Time,RESP,PLETH
1.000000,-0.046314,0.117116
2.000000,0.055787,0.190528
3.000000,0.026299,0.270564
4.000000,0.105116,0.379152
5.000000,0.103881,0.505182
6.000000,0.111984,0.487168
7.000000,0.093615,0.641864
8.000000,0.115811,0.657939
9.000000,0.095764,0.760509
10.000000,0.088000,0.807012
11.000000,0.154789,0.852347
12.000000,0.146990,0.978603
13.000000,0.170597,0.998045
14.000000,0.226522,1.025607
15.000000,0.137970,1.095414
16.000000,0.163251,1.085746
17.000000,0.176836,1.132533
18.000000,0.230154,1.112699
19.000000,0.226128,1.116044
20.000000,0.242999,1.174717
21.000000,0.339827,1.110761
22.000000,0.182439,1.178049
23.000000,0.221275,1.124029
24.000000,0.292041,1.064668
25.000000,0.257164,1.077812
26.000000,0.337063,1.093232
27.000000,0.277065,1.020566
28.000000,0.344772,1.010765
29.000000,0.303029,0.927864
30.000000,0.374970,0.944477
31.000000,0.424380,0.915204
32.000000,0.310834,0.824383
33.000000,0.389099,0.766425
34.000000,0.416038,0.735251
35.000000,0.520612,0.691661
36.000000,0.314486,0.637427
37.000000,0.432620,0.625265
38.000000,0.442932,0.535586
39.000000,0.517636,0.515560
40.000000,0.441347,0.543836
41.000000,0.580739,0.428505
42.000000,0.408451,0.438643
43.000000,0.516822,0.395626
44.000000,0.649943,0.261990
45.000000,0.526003,0.346107
46.000000,0.514716,0.236322
47.000000,0.544269,0.217187
48.000000,0.602396,0.234555
49.000000,0.646228,0.157611
50.000000,0.635503,0.132387
51.000000,0.555931,0.068117
52.000000,0.590294,0.088672
53.000000,0.618506,0.014131
54.000000,0.743257,0.060046
55.000000,0.614642,-0.007988
56.000000,0.717198,0.007069
57.000000,0.577585,-0.027398
58.000000,0.634777,-0.123842
59.000000,0.707653,-0.134711
60.000000,0.705995,-0.184019
61.000000,0.721609,-0.188182
62.000000,0.695800,-0.266552
63.000000,0.725396,-0.249152
64.000000,0.618268,-0.345481
65.000000,0.685654,-0.374707
66.000000,0.685594,-0.390798
67.000000,0.673055,-0.431132
68.000000,0.794788,-0.472223
69.000000,0.782481,-0.520593
70.000000,0.729714,-0.554099
71.000000,0.640716,-0.654678
72.000000,0.781788,-0.658805
73.000000,0.782824,-0.669835
74.000000,0.836079,-0.768062
75.000000,0.773713,-0.846644
76.000000,0.831343,-0.822373
77.000000,0.835356,-0.818090
78.000000,0.817304,-0.846308
79.000000,0.815525,-0.939962
80.000000,0.863947,-0.920094
81.000000,0.797517,-0.914519
82.000000,0.925739,-0.950201
83.000000,0.824557,-0.964791
84.000000,0.936289,-0.953646
85.000000,0.886282,-0.908639
86.000000,0.779206,-0.972218
87.000000,0.853485,-0.969287
88.000000,0.946337,-0.886138
89.000000,0.907566,-0.923802
90.000000,0.855176,-0.860527
91.000000,0.981456,-0.836706
92.000000,0.937079,-0.758637
93.000000,0.880923,-0.716009
94.000000,0.941278,-0.671462
95.000000,0.952220,-0.623761
96.000000,0.890298,-0.495108
97.000000,0.952747,-0.435904
98.000000,0.823470,-0.288658
99.000000,0.948381,-0.347053
100.000000,1.026080,-0.214293
101.000000,0.933902,-0.135371
102.000000,0.950512,-0.060804
103.000000,1.038983,0.050705
104.000000,0.922088,0.164604
105.000000,0.880392,0.221867
106.000000,0.908668,0.331188
107.000000,0.944230,0.420827
108.000000,1.020119,0.477429
109.000000,0.873091,0.617510
110.000000,0.930359,0.636662
111.000000,0.993674,0.751817
112.000000,1.063131,0.866794
113.000000,0.889344,0.925021
114.000000,0.944179,0.947882
115.000000,0.974244,1.038272
116.000000,0.979960,1.055217
117.000000,0.978391,1.137565
118.000000,1.025376,1.173123
119.000000,0.975499,1.215394
120.000000,1.007504,1.229229
121.000000,0.977776,1.229951
122.000000,1.058709,1.225557
123.000000,0.941016,1.218792
124.000000,1.041161,1.279479
125.000000,1.034347,1.250286
126.000000,1.034207,1.244805
127.000000,0.948690,1.221414
128.000000,0.947139,1.167108
129.000000,0.953156,1.228861
130.000000,0.966691,1.166393
131.000000,0.948118,1.090651
132.000000,1.039287,1.040373
133.000000,0.996553,1.014509
134.000000,0.850898,0.990867
135.000000,0.916384,0.920277
136.000000,0.967847,0.954524
137.000000,0.986553,0.881916
138.000000,0.949453,0.776744
139.000000,0.882413,0.724764
140.000000,0.994228,0.703611
141.000000,0.859265,0.668114
142.000000,1.000378,0.607000
143.000000,0.960733,0.570376
144.000000,0.969033,0.560516
145.000000,0.970023,0.493645
146.000000,1.023073,0.424771
147.000000,1.036800,0.383790
148.000000,0.972510,0.355559
149.000000,0.976175,0.344891
150.000000,0.953105,0.316531
151.000000,0.969229,0.326524
152.000000,0.946190,0.197627
153.000000,1.026997,0.220951
154.000000,0.969683,0.165136
155.000000,0.889706,0.116921
156.000000,0.911339,0.076021
157.000000,0.951560,0.119694
158.000000,0.805934,0.006511
159.000000,0.930875,0.000153
160.000000,0.904279,-0.001686
161.000000,0.901940,0.007092
162.000000,0.939311,-0.041963
163.000000,0.832218,-0.096104
164.000000,0.790212,-0.130424
165.000000,0.846568,-0.125344
166.000000,0.887902,-0.240018
167.000000,0.916597,-0.203332
168.000000,0.849180,-0.288677
169.000000,0.866837,-0.346299
170.000000,0.871523,-0.399603
171.000000,0.882446,-0.438583
172.000000,0.835890,-0.447572
173.000000,0.781541,-0.559323
174.000000,0.832149,-0.520921
175.000000,0.769001,-0.657270
176.000000,0.882135,-0.688134
177.000000,0.846170,-0.690031
178.000000,0.745078,-0.753424
179.000000,0.705524,-0.752886
180.000000,0.749042,-0.828804
181.000000,0.783915,-0.890962
182.000000,0.835623,-0.927548
183.000000,0.720231,-0.944835
184.000000,0.726041,-1.009353
185.000000,0.698552,-0.978682
186.000000,0.664193,-0.978407
187.000000,0.721428,-1.015780
188.000000,0.695286,-0.973044
189.000000,0.601462,-0.986281
190.000000,0.692171,-1.036832
191.000000,0.657392,-0.931720
192.000000,0.688989,-0.939045
193.000000,0.656208,-0.931847
194.000000,0.650825,-0.871042
195.000000,0.583850,-0.808729
196.000000,0.654416,-0.792314
197.000000,0.547701,-0.767515
198.000000,0.651416,-0.649629
199.000000,0.448101,-0.616610
200.000000,0.563221,-0.500803
201.000000,0.666660,-0.480697
202.000000,0.628746,-0.416742
203.000000,0.502971,-0.291596
204.000000,0.533820,-0.189202
205.000000,0.579964,-0.156576
206.000000,0.507647,-0.037934
207.000000,0.468735,0.080246
208.000000,0.403291,0.145200
209.000000,0.481575,0.250371
210.000000,0.461046,0.317235
211.000000,0.450660,0.433357
212.000000,0.499119,0.509282
213.000000,0.440960,0.521616
214.000000,0.471001,0.657172
215.000000,0.429316,0.706869
216.000000,0.473315,0.817638
217.000000,0.423530,0.834602
218.000000,0.428843,0.904509
219.000000,0.402489,0.913418
220.000000,0.361604,1.009095
221.000000,0.317886,1.053705
222.000000,0.331447,1.048876
223.000000,0.419532,1.078562
224.000000,0.302956,1.130314
225.000000,0.332644,1.141635
226.000000,0.289635,1.183712
227.000000,0.345783,1.176244
228.000000,0.260736,1.142443
229.000000,0.246609,1.130620
230.000000,0.353715,1.126680
231.000000,0.217026,1.038617
232.000000,0.285925,1.033719
233.000000,0.246591,1.027201
234.000000,0.184082,1.023717
235.000000,0.163470,0.956465
236.000000,0.123175,0.902839
237.000000,0.075864,0.902670
238.000000,0.153244,0.876216
239.000000,0.170675,0.745659
240.000000,0.173925,0.703820
241.000000,0.183858,0.738163
242.000000,0.148833,0.657171
243.000000,0.134368,0.599199
244.000000,-0.005022,0.528665
245.000000,0.018062,0.474437
246.000000,0.037783,0.430075
247.000000,0.074915,0.360501
248.000000,0.061257,0.390972
249.000000,0.011174,0.391409
250.000000,-0.001535,0.276399
251.000000,-0.041456,0.235299
252.000000,-0.038665,0.196340
253.000000,-0.086058,0.196095
254.000000,-0.054045,0.125061
255.000000,-0.111609,0.167414
256.000000,-0.090744,0.124993
257.000000,-0.115392,0.022335
258.000000,-0.094060,0.004322
259.000000,-0.085684,-0.031248
260.000000,-0.150933,-0.070988
261.000000,-0.136231,-0.080073
262.000000,-0.154495,-0.134507
263.000000,-0.188260,-0.156453
264.000000,-0.154332,-0.229897
265.000000,-0.138914,-0.252247
266.000000,-0.189466,-0.270377
267.000000,-0.190072,-0.311170
268.000000,-0.254586,-0.380988
269.000000,-0.284423,-0.412754
270.000000,-0.182408,-0.388606
271.000000,-0.219757,-0.522737
272.000000,-0.349445,-0.495202
273.000000,-0.278434,-0.555028
274.000000,-0.295832,-0.639866
275.000000,-0.353161,-0.643818
276.000000,-0.319979,-0.679214
277.000000,-0.299573,-0.776612
278.000000,-0.340542,-0.754598
279.000000,-0.373008,-0.792526
280.000000,-0.379568,-0.846692
281.000000,-0.517144,-0.903228
282.000000,-0.364131,-0.981369
283.000000,-0.430867,-0.997918
284.000000,-0.395404,-1.105839
285.000000,-0.456138,-1.103855
286.000000,-0.524603,-1.147754
287.000000,-0.529025,-1.131509
288.000000,-0.449040,-1.185883
289.000000,-0.492738,-1.143266
290.000000,-0.489470,-1.233554
291.000000,-0.461957,-1.120741
292.000000,-0.534697,-1.138897
293.000000,-0.468759,-1.135266
294.000000,-0.541212,-1.122158
295.000000,-0.565825,-1.121232
296.000000,-0.580258,-1.032835
297.000000,-0.597460,-1.023522
298.000000,-0.555537,-1.055798
299.000000,-0.654240,-0.959913
300.000000,-0.647838,-0.939776
301.000000,-0.578767,-0.863255
302.000000,-0.660497,-0.741028
303.000000,-0.670248,-0.744958
304.000000,-0.585918,-0.677771
305.000000,-0.708222,-0.614342
306.000000,-0.694535,-0.490612
307.000000,-0.683945,-0.434386
308.000000,-0.641053,-0.334866
309.000000,-0.629031,-0.216682
310.000000,-0.668043,-0.182813
311.000000,-0.756858,-0.000075
312.000000,-0.726047,0.046595
313.000000,-0.584478,0.144410
314.000000,-0.724138,0.288475
315.000000,-0.652677,0.277261
316.000000,-0.748224,0.408214
317.000000,-0.807131,0.471878
318.000000,-0.797704,0.568905
319.000000,-0.742455,0.603203
320.000000,-0.721903,0.685108
321.000000,-0.782032,0.744792
322.000000,-0.835510,0.820596
323.000000,-0.761847,0.767854
324.000000,-0.752937,0.911469
325.000000,-0.761910,0.937512
326.000000,-0.819429,0.935308
327.000000,-0.945296,0.949234
328.000000,-0.750067,0.951226
329.000000,-0.785152,1.012932
330.000000,-0.838423,0.944123
331.000000,-0.895455,0.995467
332.000000,-0.808195,0.936763
333.000000,-0.799207,0.856598
334.000000,-0.915674,0.906895
335.000000,-0.871466,0.824645
336.000000,-0.975093,0.823760
337.000000,-0.796152,0.849343
338.000000,-0.933097,0.779216
339.000000,-0.886285,0.765646
340.000000,-0.828896,0.677165
341.000000,-0.896896,0.651401
342.000000,-0.852571,0.588687
343.000000,-0.887512,0.576999
344.000000,-0.901833,0.562069
345.000000,-0.961102,0.478786
346.000000,-0.954303,0.444648
347.000000,-0.927634,0.378659
348.000000,-0.900852,0.358734
349.000000,-0.944238,0.306251
350.000000,-0.959675,0.325110
351.000000,-1.100116,0.239053
352.000000,-0.968544,0.099920
353.000000,-1.012136,0.129761
354.000000,-0.987398,0.098683
355.000000,-1.002334,0.117674
356.000000,-0.963570,0.051604
357.000000,-0.951223,-0.011623
358.000000,-0.994184,-0.060653
359.000000,-1.028737,-0.088316
360.000000,-0.987315,-0.038030
361.000000,-1.017888,-0.092807
362.000000,-0.923635,-0.149695
363.000000,-1.019532,-0.185575
364.000000,-1.099582,-0.253127
365.000000,-1.105295,-0.254404
366.000000,-0.978619,-0.255445
367.000000,-1.055522,-0.349853
368.000000,-0.973117,-0.384354
369.000000,-0.985144,-0.334473
370.000000,-0.994742,-0.464597
371.000000,-1.068050,-0.486070
372.000000,-1.029530,-0.474420
373.000000,-0.949463,-0.560482
374.000000,-0.895929,-0.529397
375.000000,-1.064406,-0.609218
376.000000,-0.944731,-0.694995
377.000000,-0.978974,-0.785902
378.000000,-0.925595,-0.829471
379.000000,-0.915630,-0.812431
380.000000,-1.008549,-0.847021
381.000000,-0.939511,-0.937251
382.000000,-0.874422,-0.958513
383.000000,-1.083536,-0.980117
384.000000,-0.984814,-1.041658
385.000000,-1.001878,-1.117257
386.000000,-0.977626,-1.093920
387.000000,-0.899390,-1.179129
388.000000,-0.954958,-1.183340
389.000000,-0.933798,-1.184065
390.000000,-0.989217,-1.260635
391.000000,-0.942756,-1.309863
392.000000,-0.949973,-1.271905
393.000000,-0.906806,-1.260890
394.000000,-1.017203,-1.258253
395.000000,-0.882727,-1.258224
396.000000,-0.999232,-1.223138
397.000000,-0.927073,-1.178120
398.000000,-0.968280,-1.203405
399.000000,-0.906180,-1.115886
400.000000,-0.951142,-1.105454
401.000000,-0.824620,-1.067308
402.000000,-1.002350,-1.027600
403.000000,-0.943326,-0.936919
404.000000,-0.959786,-0.835508
405.000000,-0.899452,-0.827285
406.000000,-1.019244,-0.766494
407.000000,-0.935649,-0.637723
408.000000,-0.834973,-0.589196
409.000000,-0.883416,-0.496814
410.000000,-0.854120,-0.412570
411.000000,-0.957770,-0.330688
412.000000,-0.861622,-0.193242
413.000000,-0.858293,-0.088291
414.000000,-0.817335,0.018035
415.000000,-0.859424,0.112449
416.000000,-0.893605,0.215462
417.000000,-0.847904,0.250247
418.000000,-0.934162,0.372924
419.000000,-0.862610,0.454224
420.000000,-0.863516,0.460335
421.000000,-0.826159,0.589337
422.000000,-0.762324,0.649749
423.000000,-0.841159,0.715394
424.000000,-0.856647,0.762355
425.000000,-0.753826,0.811322
426.000000,-0.882847,0.868236
427.000000,-0.815696,0.885350
428.000000,-0.671075,0.916483
429.000000,-0.744242,0.889191
430.000000,-0.757708,0.992197
431.000000,-0.894238,0.924775
432.000000,-0.838133,1.006454
433.000000,-0.714275,1.001100
434.000000,-0.774796,1.021372
435.000000,-0.798617,1.001062
436.000000,-0.744807,0.961392
437.000000,-0.787199,0.882306
438.000000,-0.631005,0.875901
439.000000,-0.695476,0.895367
440.000000,-0.682906,0.829249
441.000000,-0.649190,0.823975
442.000000,-0.679544,0.773793
443.000000,-0.697895,0.693748
444.000000,-0.619595,0.685928
445.000000,-0.639160,0.657887
446.000000,-0.646613,0.586695
447.000000,-0.653669,0.531444
448.000000,-0.657859,0.489698
449.000000,-0.646313,0.493096
450.000000,-0.585700,0.408215
451.000000,-0.605517,0.342464
452.000000,-0.586064,0.371397
453.000000,-0.600349,0.271706
454.000000,-0.620879,0.240818
455.000000,-0.502778,0.219951
456.000000,-0.556923,0.155089
457.000000,-0.506663,0.116844
458.000000,-0.523204,0.172960
459.000000,-0.484827,0.086861
460.000000,-0.479340,-0.000495
461.000000,-0.428609,-0.008637
462.000000,-0.507960,-0.043892
463.000000,-0.509257,-0.018222
464.000000,-0.422451,-0.109419
465.000000,-0.459246,-0.109479
466.000000,-0.521357,-0.093556
467.000000,-0.338168,-0.178217
468.000000,-0.491855,-0.177844
469.000000,-0.480878,-0.200379
470.000000,-0.374241,-0.250024
471.000000,-0.355343,-0.308292
472.000000,-0.365276,-0.334613
473.000000,-0.315000,-0.374883
474.000000,-0.377700,-0.378131
475.000000,-0.293000,-0.473262
476.000000,-0.379778,-0.476907
477.000000,-0.323410,-0.553663
478.000000,-0.327722,-0.545120
479.000000,-0.237645,-0.582749
480.000000,-0.216646,-0.665064
481.000000,-0.206468,-0.660486
482.000000,-0.232375,-0.745313
483.000000,-0.257824,-0.769001
484.000000,-0.160030,-0.854914
485.000000,-0.199388,-0.826819
486.000000,-0.195252,-0.937513
487.000000,-0.200402,-0.991732
488.000000,-0.179476,-0.930348
489.000000,-0.091078,-1.038411
490.000000,-0.161253,-0.991602
491.000000,-0.109729,-1.024650
492.000000,-0.104094,-1.113511
493.000000,-0.112088,-1.071912
494.000000,-0.129971,-1.152349
495.000000,-0.050977,-1.123224
496.000000,-0.067327,-1.114262
497.000000,-0.095343,-1.118471
498.000000,-0.006634,-1.108787
499.000000,-0.014118,-1.097639
500.000000,0.036676,-1.033955
501.000000,-0.041904,-0.987566
502.000000,0.021561,-0.911790
503.000000,0.124564,-0.955643
504.000000,-0.034286,-0.855772
505.000000,0.025115,-0.801430
506.000000,0.169815,-0.709042
507.000000,0.135920,-0.684654
508.000000,0.102968,-0.639995
509.000000,0.116311,-0.503884
510.000000,0.097386,-0.372453
511.000000,0.157035,-0.345282
512.000000,0.185763,-0.234212
513.000000,0.199523,-0.134421
514.000000,0.116374,-0.055101
515.000000,0.131661,0.016359
516.000000,0.257818,0.152181
517.000000,0.221002,0.224294
518.000000,0.191164,0.344622
519.000000,0.161064,0.395279
520.000000,0.253466,0.469241
521.000000,0.277370,0.631849
522.000000,0.312387,0.708854
523.000000,0.287080,0.737505
524.000000,0.275959,0.841623
525.000000,0.267376,0.852505
526.000000,0.345036,0.954504
527.000000,0.289765,0.994620
528.000000,0.370074,1.031976
529.000000,0.343949,1.073667
530.000000,0.475376,1.073943
531.000000,0.387279,1.144539
532.000000,0.411243,1.165379
533.000000,0.416430,1.181367
534.000000,0.399720,1.174688
535.000000,0.450862,1.101523
536.000000,0.352738,1.142031
537.000000,0.431967,1.159738
538.000000,0.605215,1.128169
539.000000,0.497840,1.102812
540.000000,0.461089,1.070994
541.000000,0.522269,1.005513
542.000000,0.534268,1.010064
543.000000,0.498759,0.974178
544.000000,0.518354,0.918725
545.000000,0.503864,0.885479
546.000000,0.552869,0.855377
547.000000,0.581918,0.874887
548.000000,0.613674,0.792635
549.000000,0.572845,0.735451
550.000000,0.578551,0.685138
551.000000,0.578697,0.661718
552.000000,0.588393,0.579698
553.000000,0.630678,0.511454
554.000000,0.532201,0.480045
555.000000,0.603169,0.419232
556.000000,0.693462,0.420775
557.000000,0.576788,0.383808
558.000000,0.598853,0.397777
559.000000,0.654651,0.315316
560.000000,0.649170,0.310365
561.000000,0.646266,0.213454
562.000000,0.594491,0.236249
563.000000,0.737213,0.143931
564.000000,0.744403,0.097226
565.000000,0.724604,0.166477
566.000000,0.722639,0.081758
567.000000,0.720812,-0.005354
568.000000,0.639773,0.010082
569.000000,0.729123,-0.075102
570.000000,0.661650,-0.018035
571.000000,0.722074,-0.062862
572.000000,0.825184,-0.126833
573.000000,0.751454,-0.136922
574.000000,0.876629,-0.151933
575.000000,0.788206,-0.208449
576.000000,0.760850,-0.204834
577.000000,0.798723,-0.340874
578.000000,0.828529,-0.307909
579.000000,0.892939,-0.350878
580.000000,0.772657,-0.435165
581.000000,0.844360,-0.423249
582.000000,0.925231,-0.495601
583.000000,0.905071,-0.630551
584.000000,0.827502,-0.582246
585.000000,0.882663,-0.592800
586.000000,0.848381,-0.739909
587.000000,0.840740,-0.722867
588.000000,0.761633,-0.759318
589.000000,0.913698,-0.789487
590.000000,0.895901,-0.860914
591.000000,0.929926,-0.872834
592.000000,0.868759,-0.864835
593.000000,0.880360,-0.941402
594.000000,0.932427,-0.966865
595.000000,0.893635,-0.932170
596.000000,0.975817,-0.942413
597.000000,0.939508,-0.973129
598.000000,0.939462,-0.977008
599.000000,0.967105,-0.986803
600.000000,1.001655,-0.860102
601.000000,0.987467,-0.890672
602.000000,0.892628,-0.895481
603.000000,1.030958,-0.819920
604.000000,0.879926,-0.765605
605.000000,1.005051,-0.776141
606.000000,1.051747,-0.718474
607.000000,0.904093,-0.599034
608.000000,1.007142,-0.594145
609.000000,1.071809,-0.556242
610.000000,0.988094,-0.397813
611.000000,0.998539,-0.362693
612.000000,0.957702,-0.225552
613.000000,1.058223,-0.152026
614.000000,0.983375,-0.099063
615.000000,1.081711,0.013752
616.000000,0.999870,0.058795
617.000000,0.982447,0.247217
618.000000,1.014534,0.268054
619.000000,0.915819,0.450302
620.000000,0.989095,0.516727
621.000000,0.928652,0.534787
622.000000,0.947864,0.640884
623.000000,1.048471,0.763539
624.000000,0.911585,0.835137
625.000000,1.032452,0.879340
626.000000,0.997810,0.958990
627.000000,1.032382,1.010882
628.000000,0.975827,1.051858
629.000000,1.039207,1.113200
630.000000,1.000951,1.191055
631.000000,1.015901,1.214558
632.000000,0.994145,1.209758
633.000000,1.018855,1.206336
634.000000,0.969817,1.288495
635.000000,0.997415,1.248794
636.000000,0.975274,1.316913
637.000000,0.863510,1.271727
638.000000,0.992116,1.176557
639.000000,1.004832,1.220033
640.000000,0.920905,1.169109
641.000000,1.023987,1.176317
642.000000,0.995072,1.163966
643.000000,1.046752,1.100745
644.000000,0.924223,1.096054
645.000000,0.954202,0.973747
646.000000,0.924974,0.973588
647.000000,0.914767,0.970555
648.000000,0.929856,0.934004
649.000000,0.918786,0.871580
650.000000,0.956784,0.812182
651.000000,0.981970,0.744285
652.000000,0.953328,0.668700
653.000000,0.937231,0.654069
654.000000,0.883216,0.611056
655.000000,0.960038,0.604904
656.000000,0.900280,0.511090
657.000000,0.979279,0.491605
658.000000,0.864393,0.400491
659.000000,0.901174,0.441522
660.000000,0.901739,0.387584
661.000000,0.847412,0.295101
662.000000,0.838024,0.335801
663.000000,0.931897,0.306194
664.000000,0.889768,0.197366
665.000000,0.892395,0.179636
666.000000,0.851916,0.159026
667.000000,0.821249,0.145171
668.000000,0.885170,0.055273
669.000000,0.745586,0.084602
670.000000,0.878734,0.077864
671.000000,0.840617,0.017769
672.000000,0.830357,-0.017433
673.000000,0.795592,-0.097876
674.000000,0.904302,-0.104561
675.000000,0.873667,-0.113763
676.000000,0.721910,-0.198296
677.000000,0.821267,-0.251457
678.000000,0.713376,-0.311482
679.000000,0.816481,-0.354409
680.000000,0.719176,-0.359114
681.000000,0.710203,-0.438509
682.000000,0.721243,-0.429956
683.000000,0.804002,-0.497107
684.000000,0.727492,-0.565320
685.000000,0.680574,-0.554210
686.000000,0.768052,-0.640461
687.000000,0.690022,-0.634184
688.000000,0.738546,-0.715178
689.000000,0.767910,-0.791943
690.000000,0.768318,-0.820363
691.000000,0.632854,-0.869449
692.000000,0.606347,-0.838191
693.000000,0.692831,-0.922732
694.000000,0.785916,-0.958126
695.000000,0.637420,-1.014544
696.000000,0.591638,-0.982164
697.000000,0.604358,-0.983706
698.000000,0.580928,-1.020829
699.000000,0.574857,-0.999493
700.000000,0.616169,-1.044763
701.000000,0.587170,-0.986150
702.000000,0.606179,-1.009458
703.000000,0.558940,-0.980514
704.000000,0.631297,-0.912576
705.000000,0.507518,-0.819261
706.000000,0.472470,-0.751412
707.000000,0.518751,-0.753172
708.000000,0.531254,-0.705129
709.000000,0.505920,-0.670960
710.000000,0.556420,-0.548084
711.000000,0.386472,-0.492901
712.000000,0.463516,-0.403145
713.000000,0.540570,-0.359796
714.000000,0.443765,-0.217648
715.000000,0.454125,-0.133173
716.000000,0.355565,-0.084690
717.000000,0.364276,0.006582
718.000000,0.329978,0.137833
719.000000,0.422145,0.200448
720.000000,0.305420,0.297709
721.000000,0.368299,0.378860
722.000000,0.319956,0.422721
723.000000,0.255286,0.535415
724.000000,0.389087,0.618626
725.000000,0.361750,0.703687
726.000000,0.264157,0.731445
727.000000,0.186609,0.876137
728.000000,0.320443,0.886416
729.000000,0.203525,0.946320
730.000000,0.217869,0.966167
731.000000,0.198995,1.052686
732.000000,0.162024,1.033699
733.000000,0.172400,1.083251
734.000000,0.172537,1.096563
735.000000,0.294781,1.176554
736.000000,0.257741,1.079702
737.000000,0.120533,1.132607
738.000000,0.097909,1.165416
739.000000,0.162115,1.113199
740.000000,0.086558,1.094460
741.000000,0.070030,1.086262
742.000000,0.160465,1.024629
743.000000,0.208835,1.071222
744.000000,0.013972,0.931651
745.000000,0.068909,0.947247
746.000000,0.098971,0.894769
747.000000,-0.003569,0.819236
748.000000,0.028989,0.855640
749.000000,-0.038393,0.780450
750.000000,0.030452,0.749816
751.000000,-0.050300,0.617017
752.000000,-0.085763,0.573015
753.000000,-0.019622,0.552344
754.000000,-0.026820,0.480976
755.000000,-0.001763,0.448813
756.000000,-0.021528,0.368558
757.000000,-0.043536,0.398581
758.000000,-0.151514,0.295542
759.000000,-0.110554,0.270382
760.000000,-0.111711,0.235408
761.000000,-0.137017,0.265966
762.000000,-0.137374,0.169149
763.000000,-0.129514,0.091443
764.000000,-0.275017,0.081101
765.000000,-0.127343,0.077908
766.000000,-0.173815,0.045621
767.000000,-0.197183,0.046812
768.000000,-0.248162,-0.064207
769.000000,-0.275497,-0.060253
770.000000,-0.305920,-0.056051
771.000000,-0.288182,-0.184862
772.000000,-0.394142,-0.165806
773.000000,-0.192337,-0.207457
774.000000,-0.312655,-0.275145
775.000000,-0.360371,-0.308414
776.000000,-0.364494,-0.353072
777.000000,-0.330167,-0.335576
778.000000,-0.429732,-0.419615
779.000000,-0.394239,-0.464952
780.000000,-0.354463,-0.470795
781.000000,-0.312545,-0.581965
782.000000,-0.361259,-0.558803
783.000000,-0.349200,-0.630461
784.000000,-0.401170,-0.668799
785.000000,-0.376095,-0.708187
786.000000,-0.395925,-0.758627
787.000000,-0.367780,-0.834752
788.000000,-0.447438,-0.834808
789.000000,-0.475423,-0.951437
790.000000,-0.443594,-0.914111
791.000000,-0.468673,-0.999663
792.000000,-0.474435,-1.020098
793.000000,-0.428581,-1.126130
794.000000,-0.554287,-1.093186
795.000000,-0.580807,-1.146696
796.000000,-0.475815,-1.182717
797.000000,-0.584403,-1.165956
798.000000,-0.559176,-1.188181
799.000000,-0.645036,-1.150727
800.000000,-0.566014,-1.177056
801.000000,-0.622008,-1.182993
802.000000,-0.661295,-1.156730
803.000000,-0.577556,-1.164274
804.000000,-0.670438,-1.098007
805.000000,-0.685414,-1.056661
806.000000,-0.674442,-1.027386
807.000000,-0.654041,-0.944864
808.000000,-0.616483,-0.985891
809.000000,-0.612535,-0.930981
810.000000,-0.615040,-0.798191
811.000000,-0.667788,-0.720719
812.000000,-0.675953,-0.670011
813.000000,-0.746625,-0.616646
814.000000,-0.675118,-0.461980
815.000000,-0.710716,-0.407113
816.000000,-0.744640,-0.330944
817.000000,-0.752536,-0.256089
818.000000,-0.751670,-0.138134
819.000000,-0.817635,-0.052446
820.000000,-0.813820,0.055956
821.000000,-0.858137,0.044370
822.000000,-0.710259,0.205157
823.000000,-0.830449,0.306032
824.000000,-0.849431,0.395685
825.000000,-0.817667,0.484831
826.000000,-0.715337,0.592305
827.000000,-0.848608,0.635500
828.000000,-0.931796,0.670152
829.000000,-0.893059,0.814940
830.000000,-0.803662,0.816123
831.000000,-0.920499,0.859409
832.000000,-0.807309,0.854182
833.000000,-0.981519,0.892097
834.000000,-0.931329,0.946085
835.000000,-0.800159,0.977029
836.000000,-0.935702,0.951097
837.000000,-0.884107,0.951170
838.000000,-0.932628,0.973134
839.000000,-0.929725,0.920935
840.000000,-0.864651,0.973994
841.000000,-0.964442,0.928694
842.000000,-0.862299,0.870022
843.000000,-0.947350,0.864587
844.000000,-0.928212,0.842521
845.000000,-0.969909,0.770918
846.000000,-0.907639,0.770074
847.000000,-0.932822,0.757020
848.000000,-0.850356,0.684338
849.000000,-0.932185,0.688204
850.000000,-0.925630,0.640939
851.000000,-0.847413,0.548189
852.000000,-0.991560,0.503106
853.000000,-0.947820,0.446042
854.000000,-0.956315,0.402339
855.000000,-0.953148,0.298828
856.000000,-0.933666,0.313477
857.000000,-0.947311,0.302194
858.000000,-0.925199,0.163819
859.000000,-1.060368,0.205358
860.000000,-0.904554,0.114248
861.000000,-0.931908,0.095951
862.000000,-0.910254,0.125340
863.000000,-1.018074,0.043812
864.000000,-1.032147,-0.007071
865.000000,-0.962319,-0.044922
866.000000,-0.910938,-0.043107
867.000000,-1.003990,-0.141012
868.000000,-1.020555,-0.164647
869.000000,-0.960605,-0.168858
870.000000,-1.027118,-0.149388
871.000000,-0.931186,-0.200847
872.000000,-1.046055,-0.250574
873.000000,-0.999624,-0.279535
874.000000,-1.018200,-0.292946
875.000000,-0.976169,-0.386382
876.000000,-0.996923,-0.342733
877.000000,-1.001719,-0.418094
878.000000,-0.994748,-0.423857
879.000000,-0.936801,-0.493209
880.000000,-1.040284,-0.605921
881.000000,-1.013529,-0.584472
882.000000,-0.958377,-0.656664
883.000000,-0.930806,-0.679662
884.000000,-0.961205,-0.666239
885.000000,-0.936567,-0.771482
886.000000,-0.955957,-0.791054
887.000000,-0.996864,-0.824985
888.000000,-0.952975,-0.894409
889.000000,-0.996167,-0.982417
890.000000,-0.955126,-1.036565
891.000000,-0.963539,-1.029529
892.000000,-0.925645,-1.039052
893.000000,-0.976948,-1.167126
894.000000,-0.922922,-1.072302
895.000000,-1.029470,-1.155422
896.000000,-1.038307,-1.206099
897.000000,-0.943654,-1.191041
898.000000,-1.002905,-1.263168
899.000000,-0.928907,-1.274425
900.000000,-0.879979,-1.276036
901.000000,-1.028023,-1.216258
902.000000,-0.959074,-1.220042
903.000000,-0.993334,-1.220285
904.000000,-0.914557,-1.193327
905.000000,-1.053254,-1.153415
906.000000,-0.979762,-1.070046
907.000000,-0.897202,-1.059363
908.000000,-0.911286,-0.998250
909.000000,-0.972062,-0.988356
910.000000,-0.821875,-0.842662
911.000000,-0.910205,-0.763207
912.000000,-0.921714,-0.731498
913.000000,-0.882851,-0.614025
914.000000,-0.847728,-0.547448
915.000000,-0.823883,-0.483512
916.000000,-0.938837,-0.391762
917.000000,-0.766155,-0.289372
918.000000,-0.787294,-0.286980
919.000000,-0.827806,-0.063878
920.000000,-0.904396,0.000336
921.000000,-0.851911,0.084870
922.000000,-0.801567,0.192605
923.000000,-0.777913,0.299566
924.000000,-0.819201,0.339825
925.000000,-0.815901,0.454605
926.000000,-0.764218,0.452897
927.000000,-0.755503,0.624314
928.000000,-0.765977,0.615473
929.000000,-0.744544,0.676639
930.000000,-0.738803,0.772249
931.000000,-0.809481,0.850339
932.000000,-0.750518,0.920941
933.000000,-0.756670,0.906117
934.000000,-0.863758,0.942163
935.000000,-0.759974,0.976566
936.000000,-0.771321,1.006326
937.000000,-0.712722,0.983672
938.000000,-0.669708,1.007288
939.000000,-0.701408,1.023601
940.000000,-0.745663,0.991673
941.000000,-0.746723,0.951786
942.000000,-0.636336,0.961024
943.000000,-0.539039,0.919143
944.000000,-0.640016,0.910779
945.000000,-0.604744,0.865095
946.000000,-0.739142,0.884251
947.000000,-0.628218,0.818995
948.000000,-0.616214,0.743632
949.000000,-0.625801,0.702480
950.000000,-0.661885,0.688040
951.000000,-0.660694,0.605111
952.000000,-0.633080,0.578677
953.000000,-0.455888,0.550234
954.000000,-0.630045,0.479921
955.000000,-0.626144,0.480450
956.000000,-0.500865,0.442452
957.000000,-0.434016,0.408033
958.000000,-0.493064,0.309924
959.000000,-0.506190,0.278436
960.000000,-0.455199,0.278042
961.000000,-0.505196,0.185407
962.000000,-0.501629,0.196583
963.000000,-0.543608,0.108845
964.000000,-0.487060,0.102066
965.000000,-0.517331,0.078132
966.000000,-0.366520,0.035137
967.000000,-0.375039,-0.050324
968.000000,-0.354103,-0.021791
969.000000,-0.342714,-0.084188
970.000000,-0.272355,-0.072678
971.000000,-0.373482,-0.126732
972.000000,-0.368137,-0.152186
973.000000,-0.330765,-0.173109
974.000000,-0.375461,-0.229797
975.000000,-0.287031,-0.250800
976.000000,-0.200471,-0.248951
977.000000,-0.280830,-0.303180
978.000000,-0.252834,-0.412060
979.000000,-0.294823,-0.438242
980.000000,-0.182113,-0.434821
981.000000,-0.259162,-0.467069
982.000000,-0.374322,-0.531596
983.000000,-0.161900,-0.591344
984.000000,-0.136824,-0.587198
985.000000,-0.204396,-0.628876
986.000000,-0.097192,-0.645772
987.000000,-0.237250,-0.755307
988.000000,-0.123715,-0.760438
989.000000,-0.128345,-0.851439
990.000000,-0.066732,-0.880484
991.000000,-0.218744,-0.921315
992.000000,-0.164766,-0.993659
993.000000,-0.127104,-0.967792
994.000000,-0.031332,-1.038855
995.000000,-0.097239,-1.037087
996.000000,-0.039423,-1.042474
997.000000,-0.001232,-1.148418
998.000000,-0.016101,-1.117854
999.000000,0.007770,-1.152755
1000.000000,0.029833,-1.100562
1001.000000,0.013630,-1.088883
1002.000000,0.045068,-1.107751
1003.000000,0.085581,-1.035231
1004.000000,0.153504,-1.087320
1005.000000,0.062469,-1.028366
1006.000000,-0.063636,-0.977482
1007.000000,0.121949,-0.947483
1008.000000,0.114778,-0.866633
1009.000000,0.241719,-0.858649
1010.000000,0.120701,-0.737900
1011.000000,0.060500,-0.617374
1012.000000,0.115170,-0.560180
1013.000000,0.219779,-0.516228
1014.000000,0.195470,-0.456936
1015.000000,0.130824,-0.318149
1016.000000,0.131243,-0.237709
1017.000000,0.201774,-0.139041
1018.000000,0.205703,-0.107891
1019.000000,0.237513,0.033384
1020.000000,0.205121,0.122870
1021.000000,0.324660,0.236204
1022.000000,0.292362,0.319575
1023.000000,0.153742,0.439148
1024.000000,0.277385,0.483755
1025.000000,0.340751,0.628606
1026.000000,0.379999,0.699559
1027.000000,0.392358,0.712902
1028.000000,0.273647,0.766215
1029.000000,0.318600,0.809443
1030.000000,0.371281,0.968053
1031.000000,0.318522,1.061022
1032.000000,0.436724,0.978194
1033.000000,0.470503,1.063359
1034.000000,0.522085,1.070339
1035.000000,0.406513,1.135859
1036.000000,0.345477,1.198782
1037.000000,0.510490,1.136863
1038.000000,0.475528,1.156300
1039.000000,0.444719,1.181581
1040.000000,0.495540,1.168982
1041.000000,0.562796,1.119435
1042.000000,0.445945,1.134060
1043.000000,0.590881,1.102224
1044.000000,0.566996,1.080923
1045.000000,0.558861,1.075438
1046.000000,0.628027,1.047285
1047.000000,0.540246,0.967122
1048.000000,0.672349,0.952980
1049.000000,0.715206,0.891964
1050.000000,0.600015,0.773472
1051.000000,0.634117,0.832826
1052.000000,0.524495,0.720503
1053.000000,0.520527,0.727000
1054.000000,0.613381,0.658690
1055.000000,0.680741,0.609240
1056.000000,0.639525,0.569785
1057.000000,0.762434,0.542377
1058.000000,0.726728,0.496377
1059.000000,0.713049,0.436777
1060.000000,0.660744,0.355676
1061.000000,0.660941,0.353123
1062.000000,0.671766,0.347597
1063.000000,0.748376,0.304379
1064.000000,0.659259,0.239390
1065.000000,0.693678,0.216445
1066.000000,0.651674,0.147853
1067.000000,0.750027,0.140125
1068.000000,0.709295,0.198386
1069.000000,0.746655,0.129021
1070.000000,0.833184,0.031427
1071.000000,0.758644,0.074451
1072.000000,0.804425,0.025389
1073.000000,0.816046,-0.037050
1074.000000,0.839447,-0.053081
1075.000000,0.776611,-0.131371
1076.000000,0.836260,-0.135345
1077.000000,0.846613,-0.165529
1078.000000,0.766949,-0.202166
1079.000000,0.825773,-0.267969
1080.000000,0.864010,-0.222192
1081.000000,0.865763,-0.323036
1082.000000,0.847960,-0.380426
1083.000000,0.803237,-0.370003
1084.000000,0.815726,-0.502246
1085.000000,0.814977,-0.539872
1086.000000,0.880154,-0.541562
1087.000000,0.943262,-0.588784
1088.000000,0.946941,-0.633188
1089.000000,0.958813,-0.689087
1090.000000,0.784935,-0.746502
1091.000000,0.884070,-0.793573
1092.000000,0.872275,-0.805307
1093.000000,0.991645,-0.831164
1094.000000,0.887564,-0.841868
1095.000000,0.910307,-0.908309
1096.000000,0.975616,-0.964323
1097.000000,0.919942,-0.951586
1098.000000,0.991340,-0.994597
1099.000000,0.931580,-0.903673
1100.000000,1.003184,-1.052804
1101.000000,0.957994,-0.962259
1102.000000,0.990316,-0.948388
1103.000000,1.069413,-0.946725
1104.000000,0.916047,-0.923166
1105.000000,0.942730,-0.839091
1106.000000,1.052200,-0.823549
1107.000000,0.937386,-0.797275
1108.000000,0.931740,-0.740112
1109.000000,0.963562,-0.653931
1110.000000,0.999677,-0.535823
1111.000000,0.952161,-0.521237
1112.000000,1.068865,-0.449472
1113.000000,1.052186,-0.389182
1114.000000,0.984172,-0.255243
1115.000000,0.939819,-0.227392
1116.000000,1.010246,-0.107037
1117.000000,0.963577,-0.044510
1118.000000,1.022133,0.100547
1119.000000,1.038205,0.181486
1120.000000,0.975326,0.255162
1121.000000,1.008800,0.355997
1122.000000,0.989263,0.408011
1123.000000,1.068787,0.535579
1124.000000,1.075014,0.642325
1125.000000,1.115349,0.666038
1126.000000,1.007189,0.782266
1127.000000,0.854301,0.875917
1128.000000,1.040698,0.896007
1129.000000,1.016050,0.959088
1130.000000,0.991757,1.098162
1131.000000,1.056561,1.045083
1132.000000,1.002626,1.130779
1133.000000,0.926123,1.118493
1134.000000,1.027873,1.192481
1135.000000,1.029749,1.217187
1136.000000,0.935354,1.210453
1137.000000,1.024749,1.250938
1138.000000,1.068717,1.200765
1139.000000,0.979238,1.285906
1140.000000,1.015213,1.195986
1141.000000,0.930766,1.174361
1142.000000,0.986465,1.219431
1143.000000,0.950333,1.133230
1144.000000,1.032501,1.129495
1145.000000,0.982205,1.100577
1146.000000,0.943973,1.093533
1147.000000,0.952318,1.034508
1148.000000,0.943604,0.952483
1149.000000,0.976776,0.937580
1150.000000,0.937206,0.886898
1151.000000,0.901156,0.875144
1152.000000,1.033379,0.789363
1153.000000,0.998454,0.742611
1154.000000,0.917794,0.700210
1155.000000,0.876753,0.625641
1156.000000,1.082065,0.592476
1157.000000,0.899523,0.578315
1158.000000,0.946676,0.505266
1159.000000,0.867308,0.450524
1160.000000,1.033007,0.487538
1161.000000,0.904167,0.363462
1162.000000,0.838591,0.346039
1163.000000,0.884051,0.346122
1164.000000,0.862646,0.280516
1165.000000,0.869426,0.229017
1166.000000,0.929502,0.239739
1167.000000,0.949514,0.230122
1168.000000,0.832502,0.155350
1169.000000,0.848271,0.065447
1170.000000,0.822719,0.098307
1171.000000,0.906025,0.038136
1172.000000,0.819730,0.010822
1173.000000,0.791395,0.004988
1174.000000,0.685354,-0.061741
1175.000000,0.784650,-0.074529
1176.000000,0.862727,-0.136529
1177.000000,0.811580,-0.118596
1178.000000,0.719150,-0.190492
1179.000000,0.768359,-0.270104
1180.000000,0.777518,-0.294862
1181.000000,0.742095,-0.326863
1182.000000,0.756714,-0.344602
1183.000000,0.744964,-0.398576
1184.000000,0.672296,-0.524779
1185.000000,0.746643,-0.583078
1186.000000,0.685519,-0.576275
1187.000000,0.700580,-0.576288
1188.000000,0.777145,-0.715299
1189.000000,0.655345,-0.743267
1190.000000,0.773836,-0.769844
1191.000000,0.596151,-0.815340
1192.000000,0.605029,-0.853570
1193.000000,0.677692,-0.937220
1194.000000,0.598888,-0.913974
1195.000000,0.715557,-0.964297
1196.000000,0.710146,-0.948747
1197.000000,0.572443,-0.985254
1198.000000,0.531345,-1.005671
1199.000000,0.557060,-1.033815
1200.000000,0.587809,-1.026722
1201.000000,0.520528,-1.006782
1202.000000,0.490955,-0.989108
1203.000000,0.614029,-0.971708
1204.000000,0.502658,-0.971756
1205.000000,0.525093,-0.917619
1206.000000,0.533072,-0.880851
1207.000000,0.490194,-0.817916
1208.000000,0.505523,-0.814981
1209.000000,0.441476,-0.725934
1210.000000,0.409486,-0.647236
1211.000000,0.430562,-0.566720
1212.000000,0.464131,-0.475587
1213.000000,0.416674,-0.401416
1214.000000,0.496015,-0.298266
1215.000000,0.458288,-0.284262
1216.000000,0.312711,-0.157959
1217.000000,0.386401,-0.053602
1218.000000,0.418232,0.025138
1219.000000,0.313693,0.044325
1220.000000,0.438495,0.187702
1221.000000,0.345344,0.318549
1222.000000,0.369358,0.348407
1223.000000,0.282927,0.488833
1224.000000,0.319513,0.543011
1225.000000,0.357963,0.629669
1226.000000,0.309380,0.677015
1227.000000,0.269708,0.767910
1228.000000,0.371186,0.865972
1229.000000,0.185753,0.940065
1230.000000,0.258735,0.965288
1231.000000,0.260939,1.016748
1232.000000,0.280755,1.008787
1233.000000,0.165536,1.070566
1234.000000,0.096358,1.136260
1235.000000,0.247510,1.096587
1236.000000,0.108033,1.085266
1237.000000,0.214510,1.155565
1238.000000,0.071173,1.125039
1239.000000,0.061915,1.132361
1240.000000,0.244389,1.022319
1241.000000,0.097948,1.067477
1242.000000,0.129711,0.983342
1243.000000,0.166564,1.028010
1244.000000,0.125020,0.982238
1245.000000,0.072596,0.944130
1246.000000,0.000399,0.906429
1247.000000,0.093586,0.838050
1248.000000,-0.042231,0.832577
1249.000000,-0.037705,0.799503
1250.000000,0.056125,0.711824
1251.000000,0.014277,0.611072
1252.000000,-0.080088,0.616154
1253.000000,0.001989,0.571279
1254.000000,-0.080630,0.501678
1255.000000,-0.036146,0.490293
1256.000000,-0.111064,0.359813
1257.000000,-0.019951,0.334450
1258.000000,-0.057928,0.370661
1259.000000,-0.049087,0.292945
1260.000000,-0.101406,0.280642
1261.000000,-0.173035,0.215499
1262.000000,-0.205173,0.123004
1263.000000,-0.078301,0.140306
1264.000000,-0.148107,0.084434
1265.000000,-0.167466,0.048401
1266.000000,-0.186196,0.065423
1267.000000,-0.196878,0.001923
1268.000000,-0.210675,-0.063256
1269.000000,-0.257302,-0.020775
1270.000000,-0.202391,-0.079760
1271.000000,-0.236875,-0.117699
1272.000000,-0.302199,-0.141889
1273.000000,-0.295511,-0.183587
1274.000000,-0.375416,-0.240685
1275.000000,-0.325393,-0.307289
1276.000000,-0.336824,-0.303441
1277.000000,-0.345261,-0.394959
1278.000000,-0.390803,-0.406255
1279.000000,-0.315545,-0.390920
1280.000000,-0.347068,-0.555598
1281.000000,-0.363618,-0.502777
1282.000000,-0.336560,-0.518560
1283.000000,-0.436606,-0.623476
1284.000000,-0.414686,-0.642057
1285.000000,-0.487917,-0.752148
1286.000000,-0.505199,-0.832222
1287.000000,-0.442194,-0.795168
1288.000000,-0.523108,-0.848938
1289.000000,-0.473173,-0.970934
1290.000000,-0.482548,-0.919184
1291.000000,-0.513294,-0.984652
1292.000000,-0.483359,-1.020338
1293.000000,-0.490598,-1.108706
1294.000000,-0.481487,-1.066950
1295.000000,-0.590457,-1.118919
1296.000000,-0.600842,-1.163892
1297.000000,-0.689818,-1.133035
1298.000000,-0.657859,-1.172131
1299.000000,-0.652907,-1.175175
1300.000000,-0.560601,-1.206520
1301.000000,-0.614985,-1.146047
1302.000000,-0.663678,-1.116989
1303.000000,-0.605670,-1.133732
1304.000000,-0.644787,-1.088079
1305.000000,-0.543624,-1.063001
1306.000000,-0.660546,-1.058729
1307.000000,-0.633278,-1.001056
1308.000000,-0.664960,-0.919376
1309.000000,-0.708293,-0.830916
1310.000000,-0.685188,-0.761025
1311.000000,-0.770553,-0.668962
1312.000000,-0.706137,-0.609416
1313.000000,-0.690943,-0.514593
1314.000000,-0.648018,-0.453006
1315.000000,-0.687119,-0.367943
1316.000000,-0.695815,-0.232366
1317.000000,-0.813629,-0.159549
1318.000000,-0.701412,-0.051278
1319.000000,-0.772067,-0.047372
1320.000000,-0.802954,0.060263
1321.000000,-0.844403,0.163848
1322.000000,-0.756408,0.321822
1323.000000,-0.773019,0.356835
1324.000000,-0.721912,0.471155
1325.000000,-0.788904,0.542907
1326.000000,-0.902149,0.581049
1327.000000,-0.799916,0.702374
1328.000000,-0.867054,0.696331
1329.000000,-0.768035,0.823409
1330.000000,-0.784005,0.825826
1331.000000,-0.777791,0.865993
1332.000000,-0.748108,0.872904
1333.000000,-0.888891,0.885163
1334.000000,-0.877334,0.937975
1335.000000,-0.898133,0.908132
1336.000000,-0.856887,1.000489
1337.000000,-0.878427,0.950352
1338.000000,-0.877965,0.989374
1339.000000,-0.889499,0.908037
1340.000000,-0.943140,0.948870
1341.000000,-0.820317,0.904329
1342.000000,-0.900844,0.908844
1343.000000,-0.968012,0.841654
1344.000000,-1.030327,0.792625
1345.000000,-0.856588,0.746490
1346.000000,-0.880200,0.719936
1347.000000,-0.892703,0.683508
1348.000000,-1.018227,0.649679
1349.000000,-1.012863,0.590466
1350.000000,-1.029510,0.605349
1351.000000,-0.944864,0.513482
1352.000000,-0.867169,0.494634
1353.000000,-0.943546,0.373040
1354.000000,-0.994359,0.341839
1355.000000,-1.056447,0.251270
1356.000000,-0.934351,0.275329
1357.000000,-1.069377,0.216964
1358.000000,-0.940541,0.164115
1359.000000,-0.964483,0.170258
1360.000000,-1.050136,0.074045
1361.000000,-1.037871,0.018408
1362.000000,-0.967067,-0.044244
1363.000000,-0.964891,0.005016
1364.000000,-1.038353,-0.014433
1365.000000,-1.004178,-0.078358
1366.000000,-0.999068,-0.117513
1367.000000,-1.031857,-0.165114
1368.000000,-0.973871,-0.202319
1369.000000,-0.980555,-0.239854
1370.000000,-1.007444,-0.210329
1371.000000,-0.958931,-0.256347
1372.000000,-1.094953,-0.290521
1373.000000,-1.026461,-0.367083
1374.000000,-1.053942,-0.315440
1375.000000,-0.946060,-0.418143
1376.000000,-0.972541,-0.469761
1377.000000,-1.003983,-0.517888
1378.000000,-1.058285,-0.522781
1379.000000,-1.032792,-0.566178
1380.000000,-0.964656,-0.601188
1381.000000,-1.034392,-0.713497
1382.000000,-0.967496,-0.733378
1383.000000,-1.072506,-0.760154
1384.000000,-1.043073,-0.840596
1385.000000,-0.958109,-0.841244
1386.000000,-0.914788,-0.878587
1387.000000,-0.968116,-1.004119
1388.000000,-1.004444,-0.979352
1389.000000,-1.030414,-0.998269
1390.000000,-0.951241,-1.109008
1391.000000,-1.106160,-1.098311
1392.000000,-0.964178,-1.143904
1393.000000,-0.931804,-1.148638
1394.000000,-0.959772,-1.197684
1395.000000,-0.945633,-1.217380
1396.000000,-1.053352,-1.272566
1397.000000,-0.844116,-1.280207
1398.000000,-1.018120,-1.279708
1399.000000,-0.878590,-1.219259
1400.000000,-0.904021,-1.231513
1401.000000,-0.909222,-1.175912
1402.000000,-0.911180,-1.173257
1403.000000,-1.002104,-1.154500
1404.000000,-0.870562,-1.124506
1405.000000,-0.942726,-1.021390
1406.000000,-0.911514,-1.019037
1407.000000,-0.925485,-0.971920
1408.000000,-0.897606,-0.876187
1409.000000,-0.853050,-0.834160
1410.000000,-0.888262,-0.765065
1411.000000,-0.933778,-0.699822
1412.000000,-0.837521,-0.596834
1413.000000,-0.911893,-0.443745
1414.000000,-0.969594,-0.365560
1415.000000,-0.937400,-0.319451
1416.000000,-0.828742,-0.170568
1417.000000,-0.869637,-0.090877
1418.000000,-0.807654,0.014385
1419.000000,-0.845879,0.091128
1420.000000,-0.892089,0.164850
1421.000000,-0.814726,0.317325
1422.000000,-0.941701,0.425673
1423.000000,-0.816961,0.469585
1424.000000,-0.770802,0.479685
1425.000000,-0.779462,0.518372
1426.000000,-0.823103,0.658220
1427.000000,-0.741770,0.701435
1428.000000,-0.741861,0.788845
1429.000000,-0.782934,0.869603
1430.000000,-0.740072,0.851216
1431.000000,-0.775150,0.853684
1432.000000,-0.736719,0.962464
1433.000000,-0.732317,0.962717
1434.000000,-0.734189,0.909277
1435.000000,-0.785293,1.026553
1436.000000,-0.772215,1.002091
1437.000000,-0.636897,0.968491
1438.000000,-0.742575,1.019375
1439.000000,-0.649321,0.965398
1440.000000,-0.688305,0.934442
1441.000000,-0.675176,0.891477
1442.000000,-0.669672,0.866770
1443.000000,-0.664455,0.888347
1444.000000,-0.626183,0.776543
1445.000000,-0.653090,0.767475
1446.000000,-0.616038,0.749415
1447.000000,-0.596065,0.627251
1448.000000,-0.697604,0.647926
1449.000000,-0.524492,0.595304
1450.000000,-0.593202,0.602893
1451.000000,-0.571803,0.504307
1452.000000,-0.542311,0.470084
1453.000000,-0.560353,0.417697
1454.000000,-0.621608,0.402170
1455.000000,-0.616837,0.316143
1456.000000,-0.477560,0.294668
1457.000000,-0.489263,0.230491
1458.000000,-0.529924,0.200034
1459.000000,-0.406463,0.148780
1460.000000,-0.500947,0.192275
1461.000000,-0.468096,0.117238
1462.000000,-0.520752,0.074459
1463.000000,-0.465974,0.079384
1464.000000,-0.428399,0.001407
1465.000000,-0.354571,-0.012935
1466.000000,-0.362876,-0.113857
1467.000000,-0.402671,-0.073104
1468.000000,-0.381191,-0.094065
1469.000000,-0.363820,-0.165066
1470.000000,-0.265787,-0.153004
1471.000000,-0.376116,-0.180057
1472.000000,-0.293374,-0.214843
1473.000000,-0.298720,-0.242349
1474.000000,-0.383928,-0.308280
1475.000000,-0.227818,-0.346273
1476.000000,-0.345327,-0.388000
1477.000000,-0.222533,-0.485376
1478.000000,-0.229739,-0.478332
1479.000000,-0.234391,-0.491672
1480.000000,-0.173571,-0.569407
1481.000000,-0.224288,-0.629868
1482.000000,-0.260029,-0.685133
1483.000000,-0.273062,-0.676847
1484.000000,-0.214824,-0.704686
1485.000000,-0.256388,-0.772067
1486.000000,-0.253796,-0.843405
1487.000000,-0.244457,-0.933715
1488.000000,-0.177256,-0.944525
1489.000000,-0.124555,-0.945760
1490.000000,-0.114639,-0.961319
1491.000000,-0.122521,-1.004736
1492.000000,-0.149171,-1.037882
1493.000000,-0.154207,-1.070017
1494.000000,0.017760,-1.057104
1495.000000,0.028002,-1.110655
1496.000000,-0.113859,-1.059951
1497.000000,0.049954,-1.140666
1498.000000,0.006011,-1.119224
1499.000000,-0.058487,-1.098506
1500.000000,-0.011581,-1.091256
1501.000000,-0.028488,-1.049151
1502.000000,-0.006167,-0.977180
1503.000000,-0.004143,-0.985925
1504.000000,0.022440,-0.868414
1505.000000,-0.011617,-0.886859
1506.000000,0.088994,-0.824606
1507.000000,0.127162,-0.779708
1508.000000,0.114762,-0.654739
1509.000000,0.161567,-0.592046
1510.000000,0.154024,-0.494516
1511.000000,0.093215,-0.439783
1512.000000,0.110115,-0.359960
1513.000000,0.168260,-0.201306
1514.000000,0.144240,-0.112771
1515.000000,0.154494,-0.051554
1516.000000,0.166189,0.031037
1517.000000,0.126995,0.180495
1518.000000,0.368284,0.274975
1519.000000,0.258121,0.389623
1520.000000,0.309647,0.424172
1521.000000,0.237852,0.534805
1522.000000,0.318833,0.595244
1523.000000,0.276068,0.674228
1524.000000,0.291359,0.775741
1525.000000,0.326263,0.831374
1526.000000,0.323923,0.919166
1527.000000,0.359355,0.945718
1528.000000,0.318184,0.998603
1529.000000,0.376104,1.109107
1530.000000,0.284103,1.100682
1531.000000,0.405992,1.081148
1532.000000,0.367638,1.110630
1533.000000,0.373233,1.180248
1534.000000,0.392914,1.085705
1535.000000,0.424511,1.180718
1536.000000,0.426554,1.146199
1537.000000,0.448367,1.174325
1538.000000,0.386897,1.132500
1539.000000,0.545030,1.079758
1540.000000,0.499094,1.118801
1541.000000,0.487090,1.008604
1542.000000,0.492343,1.070598
1543.000000,0.421711,1.036596
1544.000000,0.534032,0.926247
1545.000000,0.524436,0.904669
1546.000000,0.585222,0.893527
1547.000000,0.586865,0.846751
1548.000000,0.608560,0.790870
1549.000000,0.634821,0.751448
1550.000000,0.569034,0.643203
1551.000000,0.623604,0.645147
1552.000000,0.673779,0.550300
1553.000000,0.658853,0.551003
1554.000000,0.602110,0.474803
1555.000000,0.636976,0.431879
1556.000000,0.651569,0.341478
1557.000000,0.630143,0.398848
1558.000000,0.626175,0.317410
1559.000000,0.650363,0.331213
1560.000000,0.692631,0.294494
1561.000000,0.684026,0.276165
1562.000000,0.717642,0.207222
1563.000000,0.799217,0.244099
1564.000000,0.674131,0.159676
1565.000000,0.766374,0.114328
1566.000000,0.723173,0.062204
1567.000000,0.743984,0.026789
1568.000000,0.655140,0.018850
1569.000000,0.781709,0.025645
1570.000000,0.752886,-0.062441
1571.000000,0.816556,-0.115890
1572.000000,0.693900,-0.116026
1573.000000,0.798089,-0.172491
1574.000000,0.826508,-0.189915
1575.000000,0.865164,-0.190546
1576.000000,0.905417,-0.286465
1577.000000,0.936783,-0.350897
1578.000000,0.862149,-0.393549
1579.000000,0.813306,-0.392849
1580.000000,0.828247,-0.399832
1581.000000,0.827811,-0.476211
1582.000000,0.818182,-0.505070
1583.000000,0.861436,-0.543351
1584.000000,0.882072,-0.569495
1585.000000,0.904571,-0.700767
1586.000000,0.789955,-0.682525
1587.000000,0.934817,-0.695715
1588.000000,0.894767,-0.795879
1589.000000,0.962155,-0.847223
1590.000000,0.908318,-0.868331
1591.000000,0.945538,-0.872717
1592.000000,0.961631,-0.956687
1593.000000,0.920317,-0.908898
1594.000000,0.885524,-0.934041
1595.000000,1.039158,-0.952841
1596.000000,0.876297,-0.962476
1597.000000,0.934616,-0.933794
1598.000000,0.887552,-0.993724
1599.000000,0.946338,-0.926927
1600.000000,1.004128,-0.906885
1601.000000,1.004042,-0.881760
1602.000000,1.026121,-0.821035
1603.000000,0.932899,-0.767572
1604.000000,0.934443,-0.727255
1605.000000,0.866422,-0.665258
1606.000000,0.973255,-0.540658
1607.000000,1.042992,-0.530909
1608.000000,0.920913,-0.508787
1609.000000,1.038828,-0.385503
1610.000000,0.995877,-0.274482
1611.000000,0.981623,-0.248368
1612.000000,0.993318,-0.098427
1613.000000,1.042008,-0.038450
1614.000000,0.899472,0.087692
1615.000000,0.967581,0.185634
1616.000000,1.070636,0.286846
1617.000000,1.018927,0.351467
1618.000000,0.972686,0.456310
1619.000000,1.016422,0.574383
1620.000000,1.035672,0.637309
1621.000000,0.968018,0.748536
1622.000000,0.980378,0.885746
1623.000000,1.078611,0.864177
1624.000000,0.980376,0.954300
1625.000000,0.954790,0.988216
1626.000000,0.977494,0.994999
1627.000000,1.043710,1.055031
1628.000000,1.014905,1.144181
1629.000000,1.019782,1.140446
1630.000000,0.903241,1.199720
1631.000000,1.012191,1.222406
1632.000000,1.041037,1.257012
1633.000000,1.030294,1.269969
1634.000000,1.005245,1.290565
1635.000000,0.969687,1.230432
1636.000000,0.993514,1.220883
1637.000000,0.990738,1.181968
1638.000000,0.949902,1.234920
1639.000000,1.004034,1.146338
1640.000000,1.029582,1.175166
1641.000000,0.908684,1.122024
1642.000000,0.983330,1.021811
1643.000000,0.954041,1.037768
1644.000000,1.009319,0.914340
1645.000000,0.892369,0.892363
1646.000000,0.936837,0.823894
1647.000000,0.998605,0.847850
1648.000000,1.004580,0.817624
1649.000000,0.933013,0.743273
1650.000000,0.988294,0.733368
1651.000000,0.887252,0.662975
1652.000000,0.910401,0.596023
1653.000000,0.886437,0.544259
1654.000000,0.862353,0.504895
1655.000000,0.955182,0.452262
1656.000000,0.890582,0.379081
1657.000000,0.903941,0.362640
1658.000000,0.916100,0.360066
1659.000000,0.885005,0.259331
1660.000000,0.775927,0.314665
1661.000000,0.919714,0.237138
1662.000000,0.851260,0.208326
1663.000000,0.897597,0.150353
1664.000000,0.883453,0.143966
1665.000000,0.942675,0.132466
1666.000000,0.935302,0.034899
1667.000000,0.820116,0.079600
1668.000000,0.830056,0.028246
1669.000000,0.772368,-0.034068
1670.000000,0.879576,-0.109424
1671.000000,0.878285,-0.119552
1672.000000,0.839742,-0.172676
1673.000000,0.757544,-0.199818
1674.000000,0.871227,-0.243830
1675.000000,0.849278,-0.208217
1676.000000,0.827594,-0.338713
1677.000000,0.720975,-0.376037
1678.000000,0.696736,-0.426599
1679.000000,0.752935,-0.429291
1680.000000,0.773253,-0.504467
1681.000000,0.834280,-0.545621
1682.000000,0.682847,-0.642578
1683.000000,0.656184,-0.708102
1684.000000,0.728135,-0.752359
1685.000000,0.734646,-0.716264
1686.000000,0.757502,-0.766624
1687.000000,0.718856,-0.848497
1688.000000,0.760988,-0.876613
1689.000000,0.581447,-0.902650
1690.000000,0.642323,-0.916000
1691.000000,0.659767,-0.985098
1692.000000,0.701091,-1.041443
1693.000000,0.692354,-1.087741
1694.000000,0.648968,-0.969654
1695.000000,0.698931,-0.996248
1696.000000,0.634400,-0.980064
1697.000000,0.614108,-1.058080
1698.000000,0.696276,-0.999873
1699.000000,0.566075,-0.937027
1700.000000,0.568447,-0.900114
1701.000000,0.667155,-0.840426
1702.000000,0.601271,-0.886495
1703.000000,0.485454,-0.840046
1704.000000,0.556159,-0.773020
1705.000000,0.523695,-0.604031
1706.000000,0.378182,-0.586885
1707.000000,0.497788,-0.518708
1708.000000,0.460335,-0.408699
1709.000000,0.477033,-0.323942
1710.000000,0.478483,-0.240051
1711.000000,0.490480,-0.167399
1712.000000,0.366554,-0.053419
1713.000000,0.439461,0.062438
1714.000000,0.413534,0.110730
1715.000000,0.461586,0.186788
1716.000000,0.397071,0.386573
1717.000000,0.508704,0.395668
1718.000000,0.368933,0.400070
1719.000000,0.345688,0.600532
1720.000000,0.346598,0.667936
1721.000000,0.373863,0.748930
1722.000000,0.334361,0.791393
1723.000000,0.377922,0.896562
1724.000000,0.418467,0.916444
1725.000000,0.351680,0.966196
1726.000000,0.299937,0.967968
1727.000000,0.304790,1.028965
1728.000000,0.347741,1.088878
1729.000000,0.261406,1.133902
1730.000000,0.173615,1.112900
1731.000000,0.131148,1.159112
1732.000000,0.252094,1.089234
1733.000000,0.187107,1.128159
1734.000000,0.175636,1.088542
1735.000000,0.195310,1.113547
1736.000000,0.200232,1.108409
1737.000000,0.089170,1.064792
1738.000000,0.155317,1.094673
1739.000000,0.126723,0.955649
1740.000000,0.113052,0.934314
1741.000000,0.118584,0.914783
1742.000000,0.096302,0.920455
1743.000000,0.063307,0.780195
1744.000000,0.011291,0.789560
1745.000000,0.048417,0.693691
1746.000000,0.073692,0.620166
1747.000000,0.046276,0.593839
1748.000000,0.010067,0.575780
1749.000000,0.055320,0.503280
1750.000000,0.032379,0.492904
1751.000000,-0.012583,0.464377
1752.000000,0.076997,0.392854
1753.000000,-0.076008,0.361776
1754.000000,-0.043050,0.283963
1755.000000,-0.014220,0.256484
1756.000000,-0.070411,0.220844
1757.000000,-0.074029,0.154172
1758.000000,-0.082619,0.145374
1759.000000,-0.162167,0.121587
1760.000000,-0.135957,0.101539
1761.000000,-0.124626,0.018184
1762.000000,-0.193325,-0.026543
1763.000000,-0.276309,-0.076710
1764.000000,-0.142419,-0.050578
1765.000000,-0.262374,-0.132254
1766.000000,-0.260514,-0.158833
1767.000000,-0.209504,-0.144467
1768.000000,-0.234012,-0.151421
1769.000000,-0.239099,-0.238440
1770.000000,-0.224804,-0.273836
1771.000000,-0.198748,-0.361115
1772.000000,-0.322979,-0.348838
1773.000000,-0.331564,-0.365433
1774.000000,-0.276808,-0.410385
1775.000000,-0.264384,-0.538359
1776.000000,-0.334617,-0.521189
1777.000000,-0.420756,-0.604429
1778.000000,-0.382925,-0.661241
1779.000000,-0.284903,-0.731951
1780.000000,-0.408815,-0.728646
1781.000000,-0.414050,-0.808475
1782.000000,-0.373310,-0.899291
1783.000000,-0.408164,-0.881084
1784.000000,-0.400836,-0.912860
1785.000000,-0.386334,-0.999982
1786.000000,-0.412853,-0.970606
1787.000000,-0.586216,-1.047767
1788.000000,-0.465181,-1.059597
1789.000000,-0.565607,-1.102478
1790.000000,-0.486648,-1.126167
1791.000000,-0.566374,-1.170396
1792.000000,-0.417517,-1.164397
1793.000000,-0.528653,-1.185684
1794.000000,-0.536026,-1.159660
1795.000000,-0.575370,-1.175480
1796.000000,-0.432136,-1.162787
1797.000000,-0.512771,-1.114837
1798.000000,-0.569897,-1.119748
1799.000000,-0.612076,-1.077003
1800.000000,-0.592211,-1.055084
1801.000000,-0.660387,-0.989980
1802.000000,-0.628693,-0.910552
1803.000000,-0.536012,-0.836429
1804.000000,-0.539194,-0.847714
1805.000000,-0.588921,-0.732921
1806.000000,-0.707492,-0.669483
1807.000000,-0.647971,-0.587413
1808.000000,-0.660313,-0.485449
1809.000000,-0.627249,-0.348519
1810.000000,-0.656342,-0.367762
1811.000000,-0.658263,-0.231177
1812.000000,-0.660208,-0.140161
1813.000000,-0.675454,-0.039462
1814.000000,-0.677981,0.091357
1815.000000,-0.768118,0.161914
1816.000000,-0.808546,0.249364
1817.000000,-0.768727,0.310043
1818.000000,-0.835534,0.428596
1819.000000,-0.798137,0.479587
1820.000000,-0.770692,0.590914
1821.000000,-0.700991,0.643295
1822.000000,-0.785994,0.694532
1823.000000,-0.800418,0.767533
1824.000000,-0.818043,0.829162
1825.000000,-0.790968,0.803736
1826.000000,-0.806302,0.890211
1827.000000,-0.852980,0.964564
1828.000000,-0.872641,0.946914
1829.000000,-0.834005,0.966083
1830.000000,-0.859721,0.989706
1831.000000,-0.873005,0.963052
1832.000000,-0.801094,0.966971
1833.000000,-0.792208,0.912607
1834.000000,-0.798013,0.883040
1835.000000,-0.904026,0.900855
1836.000000,-0.984674,0.868154
1837.000000,-0.948437,0.869808
1838.000000,-0.845771,0.818354
1839.000000,-0.894532,0.819323
1840.000000,-0.967512,0.757303
1841.000000,-1.048446,0.708169
1842.000000,-0.904237,0.631349
1843.000000,-0.852604,0.584137
1844.000000,-0.929013,0.509296
1845.000000,-0.878796,0.509380
1846.000000,-0.951123,0.509969
1847.000000,-1.030288,0.408340
1848.000000,-0.944693,0.388650
1849.000000,-0.906791,0.309408
1850.000000,-0.931407,0.303798
1851.000000,-0.939700,0.212195
1852.000000,-0.868088,0.211851
1853.000000,-1.026353,0.147287
1854.000000,-0.981226,0.126480
1855.000000,-0.877760,0.092836
1856.000000,-0.922229,0.041477
1857.000000,-0.878554,-0.055243
1858.000000,-0.959005,-0.038965
1859.000000,-1.008295,-0.140478
1860.000000,-0.920756,-0.118469
1861.000000,-0.981006,-0.114190
1862.000000,-1.018217,-0.118147
1863.000000,-0.950425,-0.216075
1864.000000,-1.037365,-0.257650
1865.000000,-0.958013,-0.293456
1866.000000,-1.032570,-0.287626
1867.000000,-0.919639,-0.300306
1868.000000,-1.092768,-0.436765
1869.000000,-1.011968,-0.368219
1870.000000,-1.052454,-0.459614
1871.000000,-0.996338,-0.532135
1872.000000,-0.950891,-0.551661
1873.000000,-0.991015,-0.589019
1874.000000,-1.011855,-0.584173
1875.000000,-0.969278,-0.683484
1876.000000,-1.023659,-0.738117
1877.000000,-0.922225,-0.741489
1878.000000,-0.982598,-0.845295
1879.000000,-1.044349,-0.846054
1880.000000,-0.959992,-0.889161
1881.000000,-0.943776,-0.974781
1882.000000,-0.972060,-1.027389
1883.000000,-0.930030,-1.066835
1884.000000,-1.010255,-1.068690
1885.000000,-0.941162,-1.106461
1886.000000,-1.046935,-1.136754
1887.000000,-1.004572,-1.211390
1888.000000,-0.958638,-1.241600
1889.000000,-0.983743,-1.237778
1890.000000,-0.947698,-1.287714
1891.000000,-0.999068,-1.235019
1892.000000,-1.000686,-1.283330
1893.000000,-0.943942,-1.240008
1894.000000,-0.999867,-1.239279
1895.000000,-0.958451,-1.206749
1896.000000,-0.936148,-1.198586
1897.000000,-0.938575,-1.105415
1898.000000,-1.038015,-1.144023
1899.000000,-0.923347,-1.071478
1900.000000,-0.910587,-1.035690
1901.000000,-0.977474,-0.963525
1902.000000,-0.944125,-0.915970
1903.000000,-0.900504,-0.869631
1904.000000,-0.928928,-0.753880
1905.000000,-0.959711,-0.666245
1906.000000,-0.856171,-0.542439
1907.000000,-1.002677,-0.487517
1908.000000,-0.919043,-0.382064
1909.000000,-0.908831,-0.289999
1910.000000,-0.890822,-0.228775
1911.000000,-0.884347,-0.118982
1912.000000,-0.846652,-0.042152
1913.000000,-0.847911,0.054644
1914.000000,-0.878415,0.172388
1915.000000,-0.807291,0.282604
1916.000000,-0.799362,0.358832
1917.000000,-0.871553,0.413008
1918.000000,-0.879667,0.467412
1919.000000,-0.870390,0.584288
1920.000000,-0.912941,0.707945
1921.000000,-0.788866,0.736092
1922.000000,-0.788474,0.818089
1923.000000,-0.819438,0.858936
1924.000000,-0.832061,0.845034
1925.000000,-0.792137,0.948473
1926.000000,-0.767917,0.984600
1927.000000,-0.821241,0.905882
1928.000000,-0.733531,0.928519
1929.000000,-0.752018,0.987762
1930.000000,-0.776619,1.032673
1931.000000,-0.673357,1.034513
1932.000000,-0.845552,1.021234
1933.000000,-0.734622,0.931124
1934.000000,-0.684084,0.949776
1935.000000,-0.792807,0.938469
1936.000000,-0.630900,0.839387
1937.000000,-0.639977,0.844967
1938.000000,-0.688549,0.824214
1939.000000,-0.648119,0.765852
1940.000000,-0.659045,0.686848
1941.000000,-0.698741,0.658369
1942.000000,-0.709760,0.654079
1943.000000,-0.708409,0.606331
1944.000000,-0.697567,0.497854
1945.000000,-0.669301,0.484528
1946.000000,-0.566675,0.464425
1947.000000,-0.655011,0.440312
1948.000000,-0.636011,0.378746
1949.000000,-0.557712,0.336218
1950.000000,-0.574266,0.258834
1951.000000,-0.549940,0.303374
1952.000000,-0.564462,0.208594
1953.000000,-0.492634,0.183025
1954.000000,-0.474196,0.107476
1955.000000,-0.554069,0.097148
1956.000000,-0.437119,0.030597
1957.000000,-0.536843,0.025813
1958.000000,-0.534905,0.008382
1959.000000,-0.500689,-0.030221
1960.000000,-0.478950,-0.062383
1961.000000,-0.478436,-0.120005
1962.000000,-0.421267,-0.110438
1963.000000,-0.430616,-0.158259
1964.000000,-0.409583,-0.173027
1965.000000,-0.359435,-0.174179
1966.000000,-0.430887,-0.326041
1967.000000,-0.387338,-0.327580
1968.000000,-0.334174,-0.299606
1969.000000,-0.388210,-0.338228
1970.000000,-0.450959,-0.419557
1971.000000,-0.332191,-0.450279
1972.000000,-0.287594,-0.522607
1973.000000,-0.296104,-0.555139
1974.000000,-0.377516,-0.542846
1975.000000,-0.267179,-0.585075
1976.000000,-0.262236,-0.684864
1977.000000,-0.274101,-0.728921
1978.000000,-0.329009,-0.752854
1979.000000,-0.177751,-0.773712
1980.000000,-0.133786,-0.867722
1981.000000,-0.252513,-0.961725
1982.000000,-0.273508,-0.903023
1983.000000,-0.234271,-0.945656
1984.000000,-0.205309,-1.007076
1985.000000,-0.217281,-1.023931
1986.000000,-0.207961,-1.074981
1987.000000,-0.124464,-1.077322
1988.000000,-0.117032,-1.128282
1989.000000,-0.101824,-1.150732
1990.000000,-0.060582,-1.106183
1991.000000,-0.114739,-1.152879
1992.000000,-0.100551,-1.142846
1993.000000,-0.139857,-1.120285
1994.000000,-0.126639,-1.078177
1995.000000,0.039953,-1.067746
1996.000000,-0.070675,-0.995004
1997.000000,-0.000069,-0.982381
1998.000000,-0.070236,-0.902785
1999.000000,-0.070089,-0.837241
2000.000000,0.028553,-0.850166
2001.000000,-0.007568,-0.800980
2002.000000,0.047334,-0.664910
2003.000000,0.016498,-0.580682
2004.000000,-0.066350,-0.513806
2005.000000,0.073791,-0.437429
2006.000000,0.089069,-0.299543
2007.000000,0.132894,-0.245513
2008.000000,0.063700,-0.100008
2009.000000,0.125471,-0.039826
2010.000000,0.198047,0.016521
2011.000000,0.176073,0.157419
2012.000000,0.208303,0.270723
2013.000000,0.107687,0.399111
2014.000000,0.123144,0.425298
2015.000000,0.346286,0.540558
2016.000000,0.243880,0.622572
2017.000000,0.220717,0.681502
2018.000000,0.160171,0.769779
2019.000000,0.254786,0.852716
2020.000000,0.217895,0.949143
2021.000000,0.326681,0.997925
2022.000000,0.212071,1.018754
2023.000000,0.339897,1.025859
2024.000000,0.266678,1.121924
2025.000000,0.211273,1.106439
2026.000000,0.370198,1.146865
2027.000000,0.367005,1.186674
2028.000000,0.289895,1.166885
2029.000000,0.356315,1.125867
2030.000000,0.356888,1.176529
2031.000000,0.431055,1.148043
2032.000000,0.366042,1.099668
2033.000000,0.437357,1.110336
2034.000000,0.481359,1.048671
2035.000000,0.474338,1.018144
2036.000000,0.446706,0.958492
2037.000000,0.407546,1.005295
2038.000000,0.432044,0.952588
2039.000000,0.560161,0.885254
2040.000000,0.464843,0.843724
2041.000000,0.525241,0.772465
2042.000000,0.453709,0.713020
2043.000000,0.454901,0.679987
2044.000000,0.495403,0.618536
2045.000000,0.497857,0.598541
2046.000000,0.601614,0.500794
2047.000000,0.575525,0.492411
2048.000000,0.482541,0.494861
2049.000000,0.578094,0.432844
2050.000000,0.545241,0.361855
2051.000000,0.588891,0.360983
2052.000000,0.683963,0.331461
2053.000000,0.600178,0.278010
2054.000000,0.700109,0.310473
2055.000000,0.662404,0.258627
2056.000000,0.695919,0.202153
2057.000000,0.730643,0.118149
2058.000000,0.631217,0.145578
2059.000000,0.626883,0.103642
2060.000000,0.637745,0.076634
2061.000000,0.720997,0.040685
2062.000000,0.645718,0.004076
2063.000000,0.743947,-0.000790
2064.000000,0.665104,-0.074768
2065.000000,0.631877,-0.090262
2066.000000,0.753738,-0.116224
2067.000000,0.761655,-0.160302
2068.000000,0.837281,-0.256590
2069.000000,0.832693,-0.301423
2070.000000,0.805187,-0.339979
2071.000000,0.793948,-0.327420
2072.000000,0.767132,-0.395799
2073.000000,0.803580,-0.438701
2074.000000,0.891585,-0.463068
2075.000000,0.826016,-0.506511
2076.000000,0.786315,-0.567610
2077.000000,0.888152,-0.620255
2078.000000,0.901215,-0.635842
2079.000000,0.766723,-0.635453
2080.000000,0.854194,-0.699125
2081.000000,0.841476,-0.786370
2082.000000,0.893698,-0.824823
2083.000000,0.943324,-0.865227
2084.000000,0.935979,-0.919034
2085.000000,0.875594,-0.921644
2086.000000,0.910211,-0.929620
2087.000000,0.906702,-0.957864
2088.000000,0.875413,-0.964312
2089.000000,0.882853,-0.995699
2090.000000,0.834871,-0.964275
2091.000000,0.955887,-0.949694
2092.000000,0.923345,-0.952681
2093.000000,0.982167,-0.903797
2094.000000,0.885464,-0.881576
2095.000000,0.938807,-0.879667
2096.000000,1.055020,-0.784892
2097.000000,0.878616,-0.742320
2098.000000,1.000434,-0.742970
2099.000000,0.895134,-0.677803
2100.000000,0.938257,-0.612912
2101.000000,0.846067,-0.514122
2102.000000,1.023149,-0.393070
2103.000000,0.974738,-0.346409
2104.000000,1.004130,-0.285135
2105.000000,0.911827,-0.171565
2106.000000,0.972107,-0.071887
2107.000000,1.065762,0.063111
2108.000000,1.038397,0.138104
2109.000000,0.880327,0.191884
2110.000000,1.039137,0.313751
2111.000000,0.999876,0.448199
2112.000000,0.935553,0.500299
2113.000000,1.011547,0.585937
2114.000000,0.939211,0.685750
2115.000000,1.051433,0.735914
2116.000000,1.030049,0.851008
2117.000000,1.086016,0.921198
2118.000000,0.943276,0.945664
2119.000000,1.039641,1.035596
2120.000000,0.927881,1.095165
2121.000000,0.962050,1.150375
2122.000000,1.064464,1.157542
2123.000000,0.989765,1.232700
2124.000000,1.034461,1.228046
2125.000000,1.024535,1.236845
2126.000000,0.964804,1.227652
2127.000000,1.010222,1.255906
2128.000000,0.979223,1.203816
2129.000000,0.965981,1.226531
2130.000000,1.026681,1.266493
2131.000000,0.937723,1.254008
2132.000000,0.992662,1.162555
2133.000000,1.005124,1.124013
2134.000000,0.976803,1.155419
2135.000000,1.008182,1.061826
2136.000000,1.026688,1.031207
2137.000000,0.857308,1.022560
2138.000000,0.982239,0.949722
2139.000000,0.979731,0.858288
2140.000000,1.068794,0.881249
2141.000000,1.083361,0.798513
2142.000000,0.983626,0.698810
2143.000000,1.008476,0.712759
2144.000000,0.944167,0.691147
2145.000000,1.049136,0.638749
2146.000000,0.945655,0.548154
2147.000000,0.937107,0.488485
2148.000000,0.966476,0.417439
2149.000000,0.919122,0.518884
2150.000000,0.967659,0.415161
2151.000000,1.050780,0.336579
2152.000000,0.960857,0.312039
2153.000000,0.918035,0.247403
2154.000000,0.966263,0.246715
2155.000000,0.885342,0.276901
2156.000000,0.901841,0.178706
2157.000000,0.933929,0.108936
2158.000000,0.937094,0.116025
2159.000000,0.930522,0.088325
2160.000000,0.852176,0.134199
2161.000000,0.909366,-0.015672
2162.000000,0.899179,0.023755
2163.000000,0.961249,-0.059366
2164.000000,0.938853,-0.122230
2165.000000,0.879963,-0.098702
2166.000000,0.863572,-0.169884
2167.000000,0.903120,-0.193873
2168.000000,0.782503,-0.235538
2169.000000,0.766740,-0.272568
2170.000000,0.851061,-0.283249
2171.000000,0.917537,-0.357748
2172.000000,0.831808,-0.389835
2173.000000,0.843253,-0.542302
2174.000000,0.839633,-0.486776
2175.000000,0.810184,-0.585698
2176.000000,0.889377,-0.605581
2177.000000,0.815700,-0.688145
2178.000000,0.729167,-0.732661
2179.000000,0.856731,-0.785755
2180.000000,0.752513,-0.818496
2181.000000,0.765845,-0.824191
2182.000000,0.741878,-0.851271
2183.000000,0.790028,-0.911546
2184.000000,0.724788,-0.912088
2185.000000,0.762996,-0.946899
2186.000000,0.701956,-0.989273
2187.000000,0.770942,-0.970920
2188.000000,0.697403,-1.024228
2189.000000,0.761747,-1.023419
2190.000000,0.680120,-1.003855
2191.000000,0.721082,-0.995568
2192.000000,0.665369,-0.929489
2193.000000,0.610544,-0.909588
2194.000000,0.716384,-0.881351
2195.000000,0.711591,-0.860085
2196.000000,0.680871,-0.785162
2197.000000,0.510869,-0.728944
2198.000000,0.564576,-0.687343
2199.000000,0.586020,-0.612332
2200.000000,0.645421,-0.517173
2201.000000,0.549353,-0.419767
2202.000000,0.508047,-0.326880
2203.000000,0.557951,-0.284028
2204.000000,0.590992,-0.163614
2205.000000,0.482565,-0.110891
2206.000000,0.482037,-0.038078
2207.000000,0.501664,0.066609
2208.000000,0.412170,0.152394
2209.000000,0.518325,0.211994
2210.000000,0.524362,0.359740
2211.000000,0.513133,0.389833
2212.000000,0.495958,0.525909
2213.000000,0.355107,0.614536
2214.000000,0.473948,0.716501
2215.000000,0.408768,0.772029
2216.000000,0.447023,0.860771
2217.000000,0.356592,0.937131
2218.000000,0.364655,1.010273
2219.000000,0.325983,0.961754
2220.000000,0.383058,1.019867
2221.000000,0.335000,1.072166
2222.000000,0.326781,1.078266
2223.000000,0.328207,1.127207
2224.000000,0.289177,1.169603
2225.000000,0.302058,1.099560
2226.000000,0.275702,1.169198
2227.000000,0.241640,1.081643
2228.000000,0.251684,1.117861
2229.000000,0.270306,1.140735
2230.000000,0.321759,1.087299
2231.000000,0.181989,1.072611
2232.000000,0.301774,1.087359
2233.000000,0.152909,0.996727
2234.000000,0.231233,0.921894
2235.000000,0.087546,0.844414
2236.000000,0.230529,0.892951
2237.000000,0.164096,0.829682
2238.000000,0.234339,0.744604
2239.000000,0.182056,0.698722
2240.000000,0.200747,0.712021
2241.000000,0.102406,0.605628
2242.000000,0.096205,0.593932
2243.000000,0.083497,0.505707
2244.000000,0.092803,0.495998
2245.000000,-0.013135,0.451178
2246.000000,0.082325,0.383627
2247.000000,-0.036654,0.290377
2248.000000,0.027887,0.309503
2249.000000,0.048887,0.255695
2250.000000,-0.105765,0.190295
2251.000000,0.095256,0.184165
2252.000000,0.050509,0.177149
2253.000000,-0.129603,0.072347
2254.000000,-0.081374,0.076677
2255.000000,-0.046534,0.019102
2256.000000,-0.052392,-0.029650
2257.000000,-0.095534,0.015901
2258.000000,-0.118168,-0.082231
2259.000000,-0.148103,-0.087579
2260.000000,-0.162328,-0.119202
2261.000000,-0.167460,-0.139119
2262.000000,-0.132487,-0.217830
2263.000000,-0.158267,-0.272392
2264.000000,-0.086685,-0.269842
2265.000000,-0.159835,-0.337214
2266.000000,-0.140766,-0.430775
2267.000000,-0.155874,-0.399119
2268.000000,-0.192910,-0.412855
2269.000000,-0.191778,-0.457100
2270.000000,-0.301084,-0.595983
2271.000000,-0.223199,-0.625905
2272.000000,-0.336917,-0.638810
2273.000000,-0.428048,-0.662517
2274.000000,-0.320369,-0.778465
2275.000000,-0.326039,-0.834417
2276.000000,-0.311963,-0.815599
2277.000000,-0.331585,-0.873436
2278.000000,-0.372840,-0.939230
2279.000000,-0.311197,-0.984807
2280.000000,-0.385049,-0.959903
2281.000000,-0.336156,-1.045050
2282.000000,-0.422927,-1.083734
2283.000000,-0.375138,-1.108478
2284.000000,-0.406066,-1.112529
2285.000000,-0.430645,-1.102546
2286.000000,-0.459865,-1.180447
2287.000000,-0.434215,-1.144869
2288.000000,-0.441481,-1.141328
2289.000000,-0.449994,-1.167279
2290.000000,-0.448034,-1.179298
2291.000000,-0.492322,-1.081375
2292.000000,-0.565010,-1.095192
2293.000000,-0.487447,-1.096791
2294.000000,-0.507974,-1.034896
2295.000000,-0.593868,-0.967081
2296.000000,-0.553003,-0.940495
2297.000000,-0.555798,-0.880987
2298.000000,-0.570692,-0.784933
2299.000000,-0.522948,-0.717894
2300.000000,-0.634983,-0.626278
2301.000000,-0.531073,-0.496904
2302.000000,-0.585966,-0.461055
2303.000000,-0.675075,-0.320459
2304.000000,-0.628069,-0.304592
2305.000000,-0.653652,-0.230884
2306.000000,-0.596111,-0.075320
2307.000000,-0.654158,0.049951
2308.000000,-0.677590,0.108287
2309.000000,-0.631408,0.143569
2310.000000,-0.756513,0.269137
2311.000000,-0.702981,0.360257
2312.000000,-0.728237,0.417689
2313.000000,-0.722856,0.559370
2314.000000,-0.751163,0.565415
2315.000000,-0.634288,0.684403
2316.000000,-0.767806,0.730116
2317.000000,-0.771988,0.795593
2318.000000,-0.826198,0.830783
2319.000000,-0.710332,0.859047
2320.000000,-0.707725,0.943719
2321.000000,-0.808771,0.959260
2322.000000,-0.751787,0.937961
2323.000000,-0.863876,1.007428
2324.000000,-0.817549,0.972524
2325.000000,-0.856346,1.000178
2326.000000,-0.814436,0.974939
2327.000000,-0.700271,1.025370
2328.000000,-0.761106,0.905826
2329.000000,-0.843432,0.910490
2330.000000,-0.853981,0.936117
2331.000000,-0.891822,0.913450
2332.000000,-0.808845,0.840991
2333.000000,-0.874407,0.754737
2334.000000,-0.859999,0.795688
2335.000000,-0.906275,0.697750
2336.000000,-0.870347,0.649047
2337.000000,-0.931219,0.640906
2338.000000,-0.960506,0.596789
2339.000000,-0.929973,0.515782
2340.000000,-0.898517,0.446275
2341.000000,-0.950999,0.445477
2342.000000,-0.924763,0.411889
2343.000000,-0.879385,0.327631
2344.000000,-0.873369,0.293242
2345.000000,-0.977950,0.223258
2346.000000,-0.893892,0.154986
2347.000000,-0.930702,0.136463
2348.000000,-0.920976,0.173020
2349.000000,-0.984332,0.046286
2350.000000,-0.923714,0.016737
2351.000000,-0.985169,-0.001373
2352.000000,-0.975993,-0.054121
2353.000000,-0.942470,-0.062056
2354.000000,-0.986048,-0.130005
2355.000000,-0.943909,-0.141613
2356.000000,-0.925878,-0.209501
2357.000000,-0.924456,-0.241376
2358.000000,-0.989067,-0.213718
2359.000000,-0.934947,-0.267365
2360.000000,-1.037752,-0.351389
2361.000000,-0.943274,-0.301710
2362.000000,-0.976280,-0.355008
2363.000000,-0.949033,-0.399351
2364.000000,-1.017837,-0.469894
2365.000000,-0.932213,-0.462126
2366.000000,-1.030560,-0.516804
2367.000000,-0.990434,-0.565740
2368.000000,-1.006287,-0.661805
2369.000000,-0.974014,-0.621464
2370.000000,-1.012138,-0.678942
2371.000000,-0.992578,-0.778387
2372.000000,-1.021106,-0.780643
2373.000000,-0.977927,-0.856496
2374.000000,-1.055617,-0.894144
2375.000000,-0.999209,-0.913317
2376.000000,-0.971210,-0.989537
2377.000000,-0.977452,-1.115571
2378.000000,-1.035391,-1.082308
2379.000000,-1.002717,-1.109378
2380.000000,-1.045099,-1.165060
2381.000000,-1.040171,-1.182024
2382.000000,-1.054568,-1.177073
2383.000000,-0.982234,-1.260622
2384.000000,-1.016423,-1.203370
2385.000000,-0.878351,-1.269703
2386.000000,-1.012161,-1.221556
2387.000000,-0.957505,-1.243169
2388.000000,-0.957483,-1.235280
2389.000000,-0.999681,-1.231381
2390.000000,-0.954086,-1.186895
2391.000000,-1.039980,-1.220345
2392.000000,-0.984497,-1.131654
2393.000000,-0.950908,-1.096717
2394.000000,-0.974448,-1.031787
2395.000000,-0.929432,-0.983792
2396.000000,-1.025312,-0.988534
2397.000000,-0.967149,-0.840919
2398.000000,-0.868030,-0.771694
2399.000000,-0.992906,-0.744162
2400.000000,-0.964140,-0.597629
2401.000000,-1.072225,-0.547639
2402.000000,-0.900662,-0.423632
2403.000000,-0.940436,-0.355085
2404.000000,-1.023209,-0.272663
2405.000000,-0.873441,-0.150187
2406.000000,-0.897212,-0.021803
2407.000000,-0.884549,-0.012381
2408.000000,-1.050875,0.133215
2409.000000,-0.811260,0.199990
2410.000000,-0.874989,0.310066
2411.000000,-0.843088,0.443323
2412.000000,-0.840858,0.474220
2413.000000,-0.881098,0.605978
2414.000000,-0.950695,0.599190
2415.000000,-0.882730,0.713792
2416.000000,-0.795757,0.710859
2417.000000,-0.974204,0.814338
2418.000000,-0.885484,0.840873
2419.000000,-0.805716,0.866421
2420.000000,-0.917058,0.908319
2421.000000,-0.841488,0.918475
2422.000000,-0.829788,0.980402
2423.000000,-0.856441,1.026693
2424.000000,-0.830291,0.987084
2425.000000,-0.836586,0.914376
2426.000000,-0.742922,0.971854
2427.000000,-0.833248,0.942404
2428.000000,-0.704627,0.928511
2429.000000,-0.872120,0.928793
2430.000000,-0.741905,0.878763
2431.000000,-0.804985,0.834382
2432.000000,-0.757774,0.825832
2433.000000,-0.626278,0.827645
2434.000000,-0.777415,0.731139
2435.000000,-0.750359,0.746665
2436.000000,-0.765596,0.679880
2437.000000,-0.666613,0.614429
2438.000000,-0.793935,0.553473
2439.000000,-0.754582,0.496165
2440.000000,-0.707228,0.487771
2441.000000,-0.579417,0.386697
2442.000000,-0.661790,0.380008
2443.000000,-0.639160,0.357098
2444.000000,-0.631284,0.315808
2445.000000,-0.662365,0.253509
2446.000000,-0.603438,0.189345
2447.000000,-0.638217,0.169114
2448.000000,-0.602601,0.114592
2449.000000,-0.587027,0.093728
2450.000000,-0.604506,0.053857
2451.000000,-0.569403,0.073658
2452.000000,-0.647959,-0.000905
2453.000000,-0.547275,-0.101720
2454.000000,-0.634952,-0.095572
2455.000000,-0.492668,-0.124682
2456.000000,-0.521243,-0.134818
2457.000000,-0.359930,-0.093234
2458.000000,-0.463796,-0.204845
2459.000000,-0.596262,-0.233639
2460.000000,-0.480751,-0.279973
2461.000000,-0.462534,-0.256420
2462.000000,-0.440335,-0.321264
2463.000000,-0.403934,-0.408448
2464.000000,-0.393006,-0.325220
2465.000000,-0.468100,-0.416410
2466.000000,-0.480560,-0.499407
2467.000000,-0.439293,-0.535538
2468.000000,-0.347323,-0.533545
2469.000000,-0.443519,-0.623611
2470.000000,-0.374702,-0.674394
2471.000000,-0.369573,-0.719323
2472.000000,-0.377313,-0.764026
2473.000000,-0.398573,-0.741187
2474.000000,-0.301633,-0.807333
2475.000000,-0.288820,-0.805927
2476.000000,-0.327470,-0.906354
2477.000000,-0.273829,-0.925091
2478.000000,-0.274076,-0.951687
2479.000000,-0.237316,-1.025619
2480.000000,-0.240258,-1.101794
2481.000000,-0.173936,-1.078430
2482.000000,-0.261575,-1.043955
2483.000000,-0.248840,-1.074734
2484.000000,-0.242539,-1.135379
2485.000000,-0.282456,-1.158000
2486.000000,-0.281954,-1.136058
2487.000000,-0.183201,-1.133780
2488.000000,-0.172774,-1.095957
2489.000000,-0.126916,-1.106084
2490.000000,-0.099839,-1.038270
2491.000000,-0.126424,-1.049768
2492.000000,-0.152985,-0.971933
2493.000000,-0.046634,-0.931747
2494.000000,-0.099357,-0.865830
2495.000000,-0.064154,-0.821378
2496.000000,-0.063828,-0.717363
2497.000000,0.015758,-0.638887
2498.000000,0.027579,-0.573796
2499.000000,0.062867,-0.478702
2500.000000,0.080073,-0.412856
2501.000000,0.069717,-0.266587
2502.000000,0.073081,-0.226668
2503.000000,0.005032,-0.205111
2504.000000,0.070491,-0.003263
2505.000000,0.014281,0.055011
2506.000000,0.023775,0.126314
2507.000000,0.062035,0.214978
2508.000000,0.103334,0.324234
2509.000000,0.121650,0.397395
2510.000000,0.148303,0.548652
2511.000000,0.192677,0.615303
2512.000000,0.169844,0.694092
2513.000000,0.258119,0.729274
2514.000000,0.165021,0.844329
2515.000000,0.147846,0.878891
2516.000000,0.244302,0.962783
2517.000000,0.312736,0.983711
2518.000000,0.230241,1.016636
2519.000000,0.185568,1.123407
2520.000000,0.235071,1.115041
2521.000000,0.280388,1.116873
2522.000000,0.278121,1.148875
2523.000000,0.285014,1.130434
2524.000000,0.314002,1.141590
2525.000000,0.295913,1.143504
2526.000000,0.346917,1.142570
2527.000000,0.286961,1.123779
2528.000000,0.367707,1.064622
2529.000000,0.324598,1.058644
2530.000000,0.429335,1.020938
2531.000000,0.395552,1.002505
2532.000000,0.417016,0.961370
2533.000000,0.423329,0.923368
2534.000000,0.369322,0.878907
2535.000000,0.430691,0.833335
2536.000000,0.450350,0.787305
2537.000000,0.443375,0.717975
2538.000000,0.342476,0.624357
2539.000000,0.483929,0.683404
2540.000000,0.485327,0.625635
2541.000000,0.450571,0.633208
2542.000000,0.437938,0.500270
2543.000000,0.529518,0.486259
2544.000000,0.518459,0.436874
2545.000000,0.601491,0.375455
2546.000000,0.543672,0.342220
2547.000000,0.599249,0.381990
2548.000000,0.554170,0.339889
2549.000000,0.584673,0.230865
2550.000000,0.610031,0.223533
2551.000000,0.579375,0.195824
2552.000000,0.563823,0.209779
2553.000000,0.628129,0.130657
2554.000000,0.624597,0.089355
2555.000000,0.670184,0.018856
2556.000000,0.644381,0.025351
2557.000000,0.629803,0.004898
2558.000000,0.701445,0.005257
2559.000000,0.659576,-0.113485
2560.000000,0.705874,-0.084019
2561.000000,0.678771,-0.167978
2562.000000,0.785356,-0.167770
2563.000000,0.680201,-0.173097
2564.000000,0.722578,-0.247664
2565.000000,0.683136,-0.238419
2566.000000,0.648696,-0.341663
2567.000000,0.668589,-0.377138
2568.000000,0.835968,-0.408520
2569.000000,0.810331,-0.395755
2570.000000,0.900756,-0.482664
2571.000000,0.789473,-0.561372
2572.000000,0.851108,-0.519990
2573.000000,0.796138,-0.600322
2574.000000,0.796556,-0.611488
2575.000000,0.775122,-0.682689
2576.000000,0.856995,-0.729607
2577.000000,0.786872,-0.795882
2578.000000,0.906537,-0.830248
2579.000000,0.787578,-0.878153
2580.000000,0.892954,-0.920802
2581.000000,0.837394,-0.927382
2582.000000,0.802254,-0.902555
2583.000000,0.817759,-0.977847
2584.000000,0.889025,-0.972927
2585.000000,0.941602,-0.939485
2586.000000,0.860953,-0.991890
2587.000000,0.961627,-0.954212
2588.000000,0.864570,-0.987318
2589.000000,0.970611,-0.965678
2590.000000,0.828288,-0.849052
2591.000000,0.981564,-0.869000
2592.000000,0.922415,-0.793864
2593.000000,0.848618,-0.762740
2594.000000,0.923113,-0.749556
2595.000000,0.947388,-0.622256
2596.000000,0.902345,-0.571298
2597.000000,0.973110,-0.498852
2598.000000,0.939199,-0.380593
2599.000000,0.917791,-0.301079
2600.000000,0.937583,-0.219471
2601.000000,0.928165,-0.162195
2602.000000,0.997303,-0.051926
2603.000000,0.889935,0.047444
2604.000000,0.985917,0.113890
2605.000000,0.890510,0.238371
2606.000000,1.093571,0.286352
2607.000000,0.939058,0.409963
2608.000000,1.034670,0.492258
2609.000000,0.904303,0.603600
2610.000000,0.949122,0.699999
2611.000000,0.895792,0.756112
2612.000000,0.939831,0.865875
2613.000000,1.033149,0.906807
2614.000000,1.031674,1.010967
2615.000000,0.932365,1.009888
2616.000000,1.021266,1.082010
2617.000000,1.033821,1.152853
2618.000000,0.953443,1.151393
2619.000000,0.974323,1.185923
2620.000000,1.022259,1.184591
2621.000000,0.933968,1.235840
2622.000000,0.988014,1.256081
2623.000000,1.046958,1.271404
2624.000000,0.948689,1.216663
2625.000000,0.973972,1.264778
2626.000000,0.968841,1.228882
2627.000000,0.869917,1.180255
2628.000000,0.963565,1.186902
2629.000000,1.003123,1.153119
2630.000000,0.900197,1.095742
2631.000000,1.110785,1.101465
2632.000000,1.004705,1.062219
2633.000000,0.854761,0.991369
2634.000000,0.942222,0.986974
2635.000000,0.975948,0.889013
2636.000000,1.044494,0.846994
2637.000000,1.095438,0.810853
2638.000000,0.942202,0.736626
2639.000000,1.007299,0.744684
2640.000000,0.889713,0.627759
2641.000000,0.859280,0.586772
2642.000000,1.046746,0.636228
2643.000000,0.944006,0.498750
2644.000000,1.002608,0.533404
2645.000000,1.045642,0.451746
2646.000000,0.927452,0.365256
2647.000000,0.920142,0.354896
2648.000000,0.924235,0.340641
2649.000000,0.946166,0.289780
2650.000000,0.902554,0.286311
2651.000000,0.927166,0.241456
2652.000000,0.947534,0.146348
2653.000000,0.891211,0.174397
2654.000000,0.933201,0.072828
2655.000000,1.011680,0.136620
2656.000000,0.825746,0.068701
2657.000000,0.884857,0.045082
2658.000000,0.926375,0.020344
2659.000000,0.998840,-0.052178
2660.000000,0.772572,-0.016280
2661.000000,0.940253,-0.145627
2662.000000,0.889060,-0.135127
2663.000000,0.891147,-0.148610
2664.000000,0.841075,-0.298639
2665.000000,0.883003,-0.316624
2666.000000,0.768347,-0.320751
2667.000000,0.939439,-0.393887
2668.000000,0.897880,-0.419004
2669.000000,0.855559,-0.444368
2670.000000,0.742766,-0.518520
2671.000000,0.763455,-0.539482
2672.000000,0.848575,-0.553643
2673.000000,0.784232,-0.625359
2674.000000,0.756667,-0.743594
2675.000000,0.826832,-0.738254
2676.000000,0.728915,-0.798020
2677.000000,0.772600,-0.827184
2678.000000,0.867871,-0.882201
2679.000000,0.771792,-0.941596
2680.000000,0.792801,-0.933729
2681.000000,0.691783,-0.935554
2682.000000,0.719607,-1.004403
2683.000000,0.665485,-0.973984
2684.000000,0.810738,-0.996701
2685.000000,0.762138,-1.048150
2686.000000,0.680280,-1.005663
2687.000000,0.792998,-0.942983
2688.000000,0.767751,-0.901252
2689.000000,0.705256,-0.961248
2690.000000,0.641128,-0.905336
2691.000000,0.617341,-0.888106
2692.000000,0.640821,-0.818605
2693.000000,0.616709,-0.807436
2694.000000,0.630836,-0.715003
2695.000000,0.617821,-0.650970
2696.000000,0.604443,-0.559719
2697.000000,0.645233,-0.509906
2698.000000,0.576774,-0.461197
2699.000000,0.546134,-0.410809
2700.000000,0.612916,-0.270490
2701.000000,0.577858,-0.213819
2702.000000,0.477548,-0.021821
2703.000000,0.527445,-0.001342
2704.000000,0.522723,0.088565
2705.000000,0.393371,0.197289
2706.000000,0.518414,0.279376
2707.000000,0.456490,0.392704
2708.000000,0.445194,0.411588
2709.000000,0.514341,0.553643
2710.000000,0.580626,0.654125
2711.000000,0.475689,0.724827
2712.000000,0.470097,0.801824
2713.000000,0.464456,0.880751
2714.000000,0.366539,0.840361
2715.000000,0.450960,0.947858
2716.000000,0.417251,1.005385
2717.000000,0.474216,1.019356
2718.000000,0.419525,1.140542
2719.000000,0.326301,1.109682
2720.000000,0.391651,1.121156
2721.000000,0.458783,1.106062
2722.000000,0.291547,1.143454
2723.000000,0.293612,1.167280
2724.000000,0.308390,1.075071
2725.000000,0.316086,1.080553
2726.000000,0.308185,1.134555
2727.000000,0.349392,1.070261
2728.000000,0.283239,1.046325
2729.000000,0.289476,1.074592
2730.000000,0.241893,1.016331
2731.000000,0.209962,0.908671
2732.000000,0.293108,0.954336
2733.000000,0.169833,0.887063
2734.000000,0.163489,0.815189
2735.000000,0.150019,0.734968
2736.000000,0.142632,0.738529
2737.000000,0.164956,0.717750
2738.000000,0.146820,0.641816
2739.000000,0.176466,0.574397
2740.000000,0.141219,0.539357
2741.000000,0.055163,0.460505
2742.000000,0.028232,0.482695
2743.000000,0.020855,0.393288
2744.000000,0.118742,0.380253
2745.000000,0.052703,0.313662
2746.000000,0.026710,0.225753
2747.000000,0.008780,0.203471
2748.000000,-0.066441,0.186931
2749.000000,0.002679,0.134187
2750.000000,-0.076061,0.131539
2751.000000,-0.011944,0.052405
2752.000000,-0.024507,0.034560
2753.000000,-0.063053,0.073598
2754.000000,-0.012903,0.011331
2755.000000,-0.062678,-0.048737
2756.000000,-0.075697,-0.044671
2757.000000,-0.089408,-0.129410
2758.000000,-0.093953,-0.185722
2759.000000,-0.096847,-0.155265
2760.000000,-0.232539,-0.243937
2761.000000,-0.130081,-0.293667
2762.000000,-0.168185,-0.276856
2763.000000,-0.122425,-0.318283
2764.000000,-0.194747,-0.338845
2765.000000,-0.164200,-0.433369
2766.000000,-0.185369,-0.478154
2767.000000,-0.152749,-0.501465
2768.000000,-0.211868,-0.560598
2769.000000,-0.252483,-0.655081
2770.000000,-0.244558,-0.705197
2771.000000,-0.248838,-0.651086
2772.000000,-0.276279,-0.713193
2773.000000,-0.300819,-0.781176
2774.000000,-0.332877,-0.885687
2775.000000,-0.366406,-0.885847
2776.000000,-0.364254,-0.948321
2777.000000,-0.294132,-1.017016
2778.000000,-0.353954,-1.000125
2779.000000,-0.311829,-1.095270
2780.000000,-0.376829,-1.109548
2781.000000,-0.418957,-1.116822
2782.000000,-0.350840,-1.130147
2783.000000,-0.405344,-1.117402
2784.000000,-0.362137,-1.174938
2785.000000,-0.396544,-1.137117
2786.000000,-0.430478,-1.157808
2787.000000,-0.463757,-1.171579
2788.000000,-0.477026,-1.102970
2789.000000,-0.494704,-1.135266
2790.000000,-0.479020,-1.095256
2791.000000,-0.515923,-1.097516
2792.000000,-0.524060,-0.980259
2793.000000,-0.469523,-0.932871
2794.000000,-0.558002,-0.926029
2795.000000,-0.522641,-0.826173
2796.000000,-0.498566,-0.770633
2797.000000,-0.679645,-0.706433
2798.000000,-0.425831,-0.582810
2799.000000,-0.667693,-0.545494
2800.000000,-0.586016,-0.434915
2801.000000,-0.627500,-0.422346
2802.000000,-0.655338,-0.230531
2803.000000,-0.718458,-0.124181
2804.000000,-0.573130,-0.094075
2805.000000,-0.667853,0.003837
2806.000000,-0.579725,0.116217
2807.000000,-0.605668,0.237933
2808.000000,-0.603507,0.277482
2809.000000,-0.608700,0.377940
2810.000000,-0.708635,0.544763
2811.000000,-0.804336,0.534056
2812.000000,-0.736128,0.603664
2813.000000,-0.808745,0.662125
2814.000000,-0.639314,0.683041
2815.000000,-0.684034,0.784130
2816.000000,-0.681949,0.796573
2817.000000,-0.749380,0.899693
2818.000000,-0.789379,0.878249
2819.000000,-0.777244,0.937081
2820.000000,-0.656637,0.928135
2821.000000,-0.656702,1.001296
2822.000000,-0.828446,1.016377
2823.000000,-0.827165,0.972721
2824.000000,-0.888530,1.082815
2825.000000,-0.812840,0.988344
2826.000000,-0.801323,0.987281
2827.000000,-0.831963,0.934685
2828.000000,-0.705018,0.883492
2829.000000,-0.747642,0.840744
2830.000000,-0.815915,0.821809
2831.000000,-0.867056,0.811971
2832.000000,-0.821906,0.764162
2833.000000,-0.821558,0.701887
2834.000000,-0.996040,0.665726
2835.000000,-0.785127,0.635120
2836.000000,-0.974207,0.594442
2837.000000,-0.960400,0.581440
2838.000000,-0.876254,0.451298
2839.000000,-0.963691,0.394838
2840.000000,-0.983507,0.357058
2841.000000,-0.820231,0.334000
2842.000000,-0.902017,0.299874
2843.000000,-0.830408,0.235890
2844.000000,-1.045755,0.188113
2845.000000,-0.904291,0.143134
2846.000000,-0.831683,0.157834
2847.000000,-0.970128,0.087487
2848.000000,-1.041974,0.040151
2849.000000,-0.960684,0.020485
2850.000000,-0.979853,-0.101029
2851.000000,-0.979268,-0.038977
2852.000000,-0.996492,-0.050983
2853.000000,-1.000001,-0.092665
2854.000000,-0.999563,-0.151408
2855.000000,-0.906150,-0.213231
2856.000000,-0.858760,-0.179128
2857.000000,-0.987606,-0.349661
2858.000000,-0.993561,-0.294686
2859.000000,-0.974669,-0.330370
2860.000000,-0.950805,-0.363448
2861.000000,-1.062675,-0.391907
2862.000000,-1.077092,-0.428572
2863.000000,-0.976551,-0.456784
2864.000000,-1.054511,-0.490650
2865.000000,-1.001596,-0.600848
2866.000000,-0.995216,-0.598970
2867.000000,-0.949009,-0.629949
2868.000000,-0.935234,-0.723243
2869.000000,-0.928212,-0.740902
2870.000000,-1.011327,-0.782483
2871.000000,-0.986277,-0.782737
2872.000000,-0.960338,-0.807084
2873.000000,-0.975079,-0.906222
2874.000000,-0.945829,-0.979364
2875.000000,-1.068685,-0.961897
2876.000000,-1.008382,-1.051288
2877.000000,-0.987456,-1.044279
2878.000000,-1.010945,-1.120262
2879.000000,-0.982903,-1.174412
2880.000000,-0.971385,-1.237150
2881.000000,-1.079310,-1.224065
2882.000000,-0.978506,-1.239698
2883.000000,-0.895844,-1.254757
2884.000000,-0.972181,-1.155296
2885.000000,-1.041093,-1.250899
2886.000000,-1.054680,-1.249118
2887.000000,-1.071237,-1.229993
2888.000000,-0.901792,-1.212552
2889.000000,-0.973579,-1.183915
2890.000000,-1.032633,-1.135283
2891.000000,-1.002793,-1.113578
2892.000000,-0.896455,-1.086116
2893.000000,-0.920795,-1.028194
2894.000000,-0.998023,-0.952102
2895.000000,-0.948176,-0.910306
2896.000000,-0.980717,-0.842735
2897.000000,-0.871842,-0.814574
2898.000000,-0.944207,-0.700631
2899.000000,-1.080281,-0.599980
2900.000000,-1.095047,-0.498135
2901.000000,-0.950839,-0.418158
2902.000000,-1.019281,-0.394611
2903.000000,-0.898067,-0.238401
2904.000000,-0.940180,-0.109174
2905.000000,-0.979695,-0.108705
2906.000000,-0.922429,0.059091
2907.000000,-0.929240,0.163797
2908.000000,-0.941647,0.187845
2909.000000,-1.001320,0.315245
2910.000000,-0.973993,0.391892
2911.000000,-0.909575,0.473655
2912.000000,-0.824115,0.549652
2913.000000,-0.943412,0.589296
2914.000000,-0.853583,0.675047
2915.000000,-0.903720,0.795748
2916.000000,-0.931357,0.815583
2917.000000,-0.839574,0.822251
2918.000000,-0.769198,0.874563
2919.000000,-0.887733,0.882713
2920.000000,-0.806032,0.937351
2921.000000,-0.884512,0.993502
2922.000000,-0.900018,1.014601
2923.000000,-0.757906,1.005532
2924.000000,-0.820985,0.991220
2925.000000,-0.771493,1.042911
2926.000000,-0.782903,0.910019
2927.000000,-0.805731,0.920224
2928.000000,-0.837394,0.958568
2929.000000,-0.718020,0.879459
2930.000000,-0.822267,0.928248
2931.000000,-0.745593,0.819364
2932.000000,-0.761442,0.805380
2933.000000,-0.768013,0.711626
2934.000000,-0.745134,0.755269
2935.000000,-0.746855,0.597827
2936.000000,-0.863130,0.615543
2937.000000,-0.677288,0.609043
2938.000000,-0.640196,0.540449
2939.000000,-0.821053,0.485101
2940.000000,-0.577057,0.448960
2941.000000,-0.691962,0.428994
2942.000000,-0.660022,0.357371
2943.000000,-0.623849,0.318464
2944.000000,-0.664240,0.274763
2945.000000,-0.621544,0.253197
2946.000000,-0.569944,0.218926
2947.000000,-0.696751,0.154280
2948.000000,-0.590607,0.082183
2949.000000,-0.595422,0.091690
2950.000000,-0.612422,0.043639
2951.000000,-0.631795,0.054746
2952.000000,-0.570867,0.012347
2953.000000,-0.627932,-0.042263
2954.000000,-0.543082,-0.085451
2955.000000,-0.652164,-0.099994
2956.000000,-0.519457,-0.127881
2957.000000,-0.548117,-0.164845
2958.000000,-0.502823,-0.152941
2959.000000,-0.479097,-0.216744
2960.000000,-0.447220,-0.253319
2961.000000,-0.596650,-0.313545
2962.000000,-0.420742,-0.345757
2963.000000,-0.434293,-0.314900
2964.000000,-0.449959,-0.387272
2965.000000,-0.436452,-0.412988
2966.000000,-0.387938,-0.455889
2967.000000,-0.410023,-0.520565
2968.000000,-0.437512,-0.558487
2969.000000,-0.347021,-0.553153
2970.000000,-0.384110,-0.600735
2971.000000,-0.408140,-0.712751
2972.000000,-0.306834,-0.720740
2973.000000,-0.344660,-0.750316
2974.000000,-0.272951,-0.851786
2975.000000,-0.310488,-0.847183
2976.000000,-0.190932,-0.915927
2977.000000,-0.334811,-0.986884
2978.000000,-0.145102,-0.963799
2979.000000,-0.243585,-1.001861
2980.000000,-0.235362,-1.002445
2981.000000,-0.206687,-1.106341
2982.000000,-0.272358,-1.058393
2983.000000,-0.189702,-1.164493
2984.000000,-0.278564,-1.146161
2985.000000,-0.290375,-1.119306
2986.000000,-0.203036,-1.119821
2987.000000,-0.155904,-1.090607
2988.000000,-0.129657,-1.047177
2989.000000,-0.125350,-1.083048
2990.000000,-0.038057,-1.093853
2991.000000,-0.106551,-1.026596
2992.000000,-0.127340,-0.950181
2993.000000,-0.092363,-0.897344
2994.000000,-0.024047,-0.865867
2995.000000,-0.054633,-0.855777
2996.000000,-0.008341,-0.734480
2997.000000,-0.000043,-0.689650
2998.000000,0.010645,-0.599732
2999.000000,0.011179,-0.555340
3000.000000,0.084756,-0.431770
3001.000000,-0.068399,-0.362995
3002.000000,0.022931,-0.189460
3003.000000,0.023155,-0.210048
3004.000000,0.085081,-0.090455
3005.000000,0.037155,0.018517
3006.000000,0.063730,0.072890
3007.000000,0.128318,0.224962
3008.000000,0.112984,0.258293
3009.000000,0.093257,0.402888
3010.000000,0.055931,0.464553
3011.000000,0.224762,0.570013
3012.000000,0.083746,0.648962
3013.000000,0.209440,0.683795
3014.000000,0.228320,0.791940
3015.000000,0.256493,0.848495
3016.000000,0.111357,0.905363
3017.000000,0.249162,0.962064
3018.000000,0.202443,1.007917
3019.000000,0.250902,1.071100
3020.000000,0.278140,1.054365
3021.000000,0.264587,1.104658
3022.000000,0.232146,1.132484
3023.000000,0.322156,1.131444
3024.000000,0.221225,1.150758
3025.000000,0.363071,1.083442
3026.000000,0.289742,1.127053
3027.000000,0.323028,1.112685
3028.000000,0.406159,1.150500
3029.000000,0.250032,1.085615
3030.000000,0.438991,1.033516
3031.000000,0.440586,1.067546
3032.000000,0.447929,0.983570
3033.000000,0.383635,0.943623
3034.000000,0.381822,0.898391
3035.000000,0.394558,0.864646
3036.000000,0.460121,0.812414
3037.000000,0.472666,0.779988
3038.000000,0.510174,0.797417
3039.000000,0.408844,0.697163
3040.000000,0.529844,0.682372
3041.000000,0.546105,0.648841
3042.000000,0.536054,0.564143
3043.000000,0.522544,0.543152
3044.000000,0.470920,0.435642
3045.000000,0.491197,0.431310
3046.000000,0.635320,0.406721
3047.000000,0.533621,0.367708
3048.000000,0.638826,0.334084
3049.000000,0.475558,0.297735
3050.000000,0.572825,0.287357
3051.000000,0.592677,0.218414
3052.000000,0.546233,0.232956
3053.000000,0.661509,0.130699
3054.000000,0.677034,0.086250
3055.000000,0.615247,0.092141
3056.000000,0.547733,0.070731
3057.000000,0.636287,0.090166
3058.000000,0.664585,0.026207
3059.000000,0.699255,-0.007414
3060.000000,0.713952,-0.012865
3061.000000,0.662049,-0.069990
3062.000000,0.706466,-0.074758
3063.000000,0.703957,-0.171394
3064.000000,0.724470,-0.196149
3065.000000,0.697949,-0.198631
3066.000000,0.757169,-0.289927
3067.000000,0.780783,-0.264717
3068.000000,0.691843,-0.305050
3069.000000,0.755889,-0.407708
3070.000000,0.836052,-0.428471
3071.000000,0.787578,-0.480777
3072.000000,0.819061,-0.537912
3073.000000,0.743415,-0.579341
3074.000000,0.830970,-0.628400
3075.000000,0.723784,-0.679989
3076.000000,0.839741,-0.697372
3077.000000,0.728011,-0.759739
3078.000000,0.738084,-0.771044
3079.000000,0.818214,-0.869852
3080.000000,0.795323,-0.847664
3081.000000,0.824305,-0.880532
3082.000000,0.861573,-0.904992
3083.000000,0.879355,-0.956517
3084.000000,0.849244,-0.973945
3085.000000,0.909443,-0.942860
3086.000000,0.891490,-0.920290
3087.000000,0.888925,-0.958596
3088.000000,0.968664,-0.967832
3089.000000,0.938252,-0.925647
3090.000000,0.916540,-0.935397
3091.000000,0.926097,-0.924373
3092.000000,0.922529,-0.841342
3093.000000,0.866567,-0.831791
3094.000000,0.871329,-0.753459
3095.000000,0.956944,-0.693794
3096.000000,0.981145,-0.741735
3097.000000,0.886060,-0.661047
3098.000000,1.006824,-0.528491
3099.000000,0.863562,-0.529180
3100.000000,0.950137,-0.454165
3101.000000,1.037249,-0.262531
3102.000000,0.997352,-0.173795
3103.000000,1.010614,-0.121712
3104.000000,0.882760,-0.021385
3105.000000,0.998554,0.121624
3106.000000,0.940912,0.155245
3107.000000,1.013210,0.212090
3108.000000,0.954317,0.283795
3109.000000,0.969355,0.406333
3110.000000,1.070583,0.507951
3111.000000,0.965607,0.606199
3112.000000,1.006475,0.691644
3113.000000,1.037554,0.803406
3114.000000,1.025402,0.788414
3115.000000,1.051798,0.920473
3116.000000,0.937322,0.973486
3117.000000,1.018924,1.023758
3118.000000,0.863213,1.013940
3119.000000,0.999225,1.074785
3120.000000,0.981585,1.122099
3121.000000,0.985136,1.165525
3122.000000,1.000657,1.227789
3123.000000,0.982167,1.260399
3124.000000,0.991741,1.198832
3125.000000,1.001248,1.246245
3126.000000,0.928189,1.257044
3127.000000,0.949576,1.264351
3128.000000,0.909348,1.244650
3129.000000,0.962692,1.249078
3130.000000,0.989579,1.195151
3131.000000,0.899419,1.126856
3132.000000,0.957031,1.124370
3133.000000,1.043385,1.059129
3134.000000,1.024713,1.074324
3135.000000,1.011830,0.987013
3136.000000,0.923600,0.939962
3137.000000,0.951655,0.933468
3138.000000,1.017272,0.911816
3139.000000,0.928794,0.810661
3140.000000,1.109435,0.815464
3141.000000,0.923749,0.754734
3142.000000,1.008099,0.641426
3143.000000,0.870059,0.629271
3144.000000,0.963250,0.595635
3145.000000,0.943052,0.530438
3146.000000,0.883545,0.552215
3147.000000,0.997541,0.454270
3148.000000,1.042091,0.459921
3149.000000,0.926719,0.322987
3150.000000,0.946421,0.336419
3151.000000,0.863451,0.382068
3152.000000,1.010871,0.277145
3153.000000,0.886674,0.273265
3154.000000,0.984761,0.191007
3155.000000,0.945454,0.159501
3156.000000,0.872450,0.170109
3157.000000,0.964977,0.161220
3158.000000,0.927845,0.131085
3159.000000,0.957609,0.078244
3160.000000,0.780398,0.068864
3161.000000,0.866301,-0.005036
3162.000000,0.906396,-0.055427
3163.000000,0.899151,-0.061002
3164.000000,0.828240,-0.102896
3165.000000,0.937833,-0.146103
3166.000000,0.888997,-0.175921
3167.000000,0.895287,-0.213853
3168.000000,0.871777,-0.210824
3169.000000,0.789159,-0.361741
3170.000000,0.854563,-0.376132
3171.000000,0.912504,-0.392310
3172.000000,0.801147,-0.497372
3173.000000,0.887879,-0.528444
3174.000000,0.801179,-0.538198
3175.000000,0.682034,-0.591926
3176.000000,0.777409,-0.633083
3177.000000,0.762352,-0.674049
3178.000000,0.787804,-0.719914
3179.000000,0.730675,-0.777013
3180.000000,0.763980,-0.827469
3181.000000,0.723057,-0.841267
3182.000000,0.774298,-0.924299
3183.000000,0.741965,-0.944744
3184.000000,0.718771,-0.968353
3185.000000,0.726927,-0.979365
3186.000000,0.653236,-0.990780
3187.000000,0.707980,-0.971357
3188.000000,0.729090,-1.001182
3189.000000,0.666168,-0.928094
3190.000000,0.677900,-0.983588
3191.000000,0.689842,-0.952139
3192.000000,0.714544,-0.955111
3193.000000,0.662507,-0.904456
3194.000000,0.644926,-0.910551
3195.000000,0.646462,-0.865621
3196.000000,0.641742,-0.827579
3197.000000,0.665195,-0.737564
3198.000000,0.504526,-0.685114
3199.000000,0.534337,-0.603887
3200.000000,0.520036,-0.584644
3201.000000,0.578449,-0.491327
3202.000000,0.561501,-0.366027
3203.000000,0.526747,-0.348276
3204.000000,0.584693,-0.252240
3205.000000,0.562500,-0.111227
3206.000000,0.473679,0.013927
3207.000000,0.536680,0.061119
3208.000000,0.517209,0.132470
3209.000000,0.456794,0.234147
3210.000000,0.533257,0.274366
3211.000000,0.497977,0.374916
3212.000000,0.488619,0.506310
3213.000000,0.472696,0.545469
3214.000000,0.474119,0.658058
3215.000000,0.323283,0.736310
3216.000000,0.395976,0.790269
3217.000000,0.315177,0.801827
3218.000000,0.415966,0.910883
3219.000000,0.382735,0.940196
3220.000000,0.380008,0.999376
3221.000000,0.275136,1.025194
3222.000000,0.379401,1.052639
3223.000000,0.289499,1.148918
3224.000000,0.323427,1.109170
3225.000000,0.432522,1.157159
3226.000000,0.232664,1.138026
3227.000000,0.259096,1.173798
3228.000000,0.299191,1.179693
3229.000000,0.288542,1.106660
3230.000000,0.261842,1.128600
3231.000000,0.244809,1.100259
3232.000000,0.286090,1.017255
3233.000000,0.229625,1.004240
3234.000000,0.202557,1.003139
3235.000000,0.296363,0.973907
3236.000000,0.251344,0.880754
3237.000000,0.225168,0.903102
3238.000000,0.032514,0.846825
3239.000000,0.104602,0.769617
3240.000000,0.163025,0.693761
3241.000000,0.110754,0.661287
3242.000000,0.147674,0.578152
3243.000000,0.169658,0.586821
3244.000000,0.006121,0.590153
3245.000000,0.063948,0.480173
3246.000000,0.054856,0.473032
3247.000000,-0.017871,0.373540
3248.000000,0.084741,0.370062
3249.000000,-0.007666,0.310058
3250.000000,0.002983,0.262752
3251.000000,-0.013923,0.265839
3252.000000,0.077383,0.192169
3253.000000,0.018488,0.123285
3254.000000,-0.041761,0.105143
3255.000000,-0.176430,0.121332
3256.000000,-0.121416,0.103992
3257.000000,-0.125867,0.050594
3258.000000,-0.041247,-0.017412
3259.000000,-0.095297,0.008261
3260.000000,-0.281872,-0.037701
3261.000000,-0.094886,-0.100996
3262.000000,-0.121104,-0.109112
3263.000000,-0.183892,-0.173582
3264.000000,-0.156741,-0.180967
3265.000000,-0.170569,-0.283098
3266.000000,-0.286137,-0.271385
3267.000000,-0.158868,-0.326842
3268.000000,-0.272573,-0.355966
3269.000000,-0.297333,-0.416826
3270.000000,-0.254375,-0.490558
3271.000000,-0.190575,-0.504712
3272.000000,-0.279962,-0.528482
3273.000000,-0.291814,-0.601008
3274.000000,-0.271598,-0.632894
3275.000000,-0.353755,-0.699731
3276.000000,-0.311536,-0.741315
3277.000000,-0.325105,-0.779829
3278.000000,-0.331265,-0.812622
3279.000000,-0.297886,-0.860950
3280.000000,-0.311408,-0.894431
3281.000000,-0.344717,-0.979988
3282.000000,-0.383793,-0.975157
3283.000000,-0.381545,-1.041416
3284.000000,-0.351712,-1.057339
3285.000000,-0.454730,-1.101517
3286.000000,-0.483107,-1.133106
3287.000000,-0.403283,-1.167469
3288.000000,-0.460927,-1.186177
3289.000000,-0.602166,-1.192760
3290.000000,-0.443592,-1.189668
3291.000000,-0.418943,-1.166893
3292.000000,-0.388978,-1.185813
3293.000000,-0.484372,-1.143424
3294.000000,-0.512717,-1.173393
3295.000000,-0.596770,-1.079141
3296.000000,-0.493265,-1.072766
3297.000000,-0.581076,-1.044513
3298.000000,-0.567915,-0.962994
3299.000000,-0.632557,-0.949057
3300.000000,-0.602540,-0.860313
3301.000000,-0.650082,-0.747608
3302.000000,-0.600932,-0.696163
3303.000000,-0.547220,-0.609046
3304.000000,-0.586003,-0.552860
3305.000000,-0.613819,-0.559267
3306.000000,-0.690512,-0.401373
3307.000000,-0.633746,-0.317530
3308.000000,-0.662209,-0.237115
3309.000000,-0.743051,-0.182556
3310.000000,-0.684284,-0.014216
3311.000000,-0.792384,0.010156
3312.000000,-0.673534,0.154774
3313.000000,-0.766644,0.255725
3314.000000,-0.722828,0.335442
3315.000000,-0.802268,0.414733
3316.000000,-0.674928,0.487727
3317.000000,-0.788427,0.539796
3318.000000,-0.701105,0.654641
3319.000000,-0.772862,0.700200
3320.000000,-0.773895,0.718869
3321.000000,-0.799378,0.783659
3322.000000,-0.824130,0.837349
3323.000000,-0.836591,0.887236
3324.000000,-0.866301,0.900640
3325.000000,-0.834331,0.914071
3326.000000,-0.768485,1.016776
3327.000000,-0.848024,0.887368
3328.000000,-0.882053,0.977177
3329.000000,-0.879061,0.949822
3330.000000,-0.877964,0.968930
3331.000000,-0.799770,0.982758
3332.000000,-0.794947,0.970205
3333.000000,-0.809851,0.922888
3334.000000,-0.895559,0.909195
3335.000000,-0.864704,0.861891
3336.000000,-0.822400,0.850264
3337.000000,-0.885965,0.809893
3338.000000,-0.928020,0.726626
3339.000000,-0.958694,0.731570
3340.000000,-0.855602,0.694033
3341.000000,-0.978177,0.605633
3342.000000,-0.904794,0.556957
3343.000000,-0.950059,0.533915
3344.000000,-0.990347,0.517929
3345.000000,-1.034626,0.452643
3346.000000,-0.881151,0.416282
3347.000000,-1.028400,0.383927
3348.000000,-0.926176,0.284935
3349.000000,-0.940298,0.285710
3350.000000,-0.993623,0.234007
3351.000000,-0.881985,0.181849
3352.000000,-0.993534,0.135489
3353.000000,-0.880127,0.087719
3354.000000,-0.894027,0.069816
3355.000000,-0.990369,0.078073
3356.000000,-0.954702,-0.035632
3357.000000,-0.975366,-0.044008
3358.000000,-1.012497,-0.014959
3359.000000,-0.842044,-0.092472
3360.000000,-1.020741,-0.114487
3361.000000,-0.957853,-0.127057
3362.000000,-0.963329,-0.112002
3363.000000,-1.054564,-0.248129
3364.000000,-1.004100,-0.173327
3365.000000,-0.986301,-0.260966
3366.000000,-0.962444,-0.275136
3367.000000,-1.011843,-0.301475
3368.000000,-0.927058,-0.414442
3369.000000,-1.114752,-0.430697
3370.000000,-0.966787,-0.561892
3371.000000,-1.002084,-0.516570
3372.000000,-1.001422,-0.587399
3373.000000,-1.008645,-0.585159
3374.000000,-1.001479,-0.670553
3375.000000,-1.062378,-0.699599
3376.000000,-1.012073,-0.749790
3377.000000,-0.975960,-0.871621
3378.000000,-1.052544,-0.830289
3379.000000,-1.116537,-0.838543
3380.000000,-0.998918,-0.856584
3381.000000,-1.009520,-0.974283
3382.000000,-1.058056,-1.051461
3383.000000,-1.066365,-1.046141
3384.000000,-0.965624,-1.100373
3385.000000,-1.007479,-1.148014
3386.000000,-1.045978,-1.097889
3387.000000,-0.974344,-1.216482
3388.000000,-1.001101,-1.165316
3389.000000,-0.951077,-1.296980
3390.000000,-1.050467,-1.230468
3391.000000,-0.953699,-1.281467
3392.000000,-0.960385,-1.245455
3393.000000,-0.963817,-1.270600
3394.000000,-0.969375,-1.243084
3395.000000,-1.022664,-1.209693
3396.000000,-0.998799,-1.148277
3397.000000,-0.981723,-1.172581
3398.000000,-0.877488,-1.154044
3399.000000,-1.024876,-1.103984
3400.000000,-1.006766,-1.063135
3401.000000,-0.842029,-0.983274
3402.000000,-0.822744,-0.917334
3403.000000,-0.948987,-0.844984
3404.000000,-0.927643,-0.766878
3405.000000,-0.861265,-0.716967
3406.000000,-0.968305,-0.638426
3407.000000,-0.941422,-0.527934
3408.000000,-0.965289,-0.437154
3409.000000,-0.977649,-0.429848
3410.000000,-0.931585,-0.280230
3411.000000,-0.962103,-0.198819
3412.000000,-0.885587,-0.138418
3413.000000,-0.924771,-0.012631
3414.000000,-0.913783,0.113150
3415.000000,-0.923442,0.199068
3416.000000,-0.866970,0.227551
3417.000000,-0.757364,0.350220
3418.000000,-0.832636,0.407748
3419.000000,-0.900900,0.422465
3420.000000,-0.820428,0.555339
3421.000000,-0.853397,0.600518
3422.000000,-0.765873,0.717795
3423.000000,-0.872082,0.785517
3424.000000,-0.743836,0.851712
3425.000000,-0.725611,0.854878
3426.000000,-0.827640,0.902907
3427.000000,-0.752035,0.950512
3428.000000,-0.702729,0.904944
3429.000000,-0.785528,0.966956
3430.000000,-0.720153,0.928624
3431.000000,-0.790405,1.042680
3432.000000,-0.765166,0.965910
3433.000000,-0.743422,0.959669
3434.000000,-0.780523,0.971832
3435.000000,-0.736128,1.009536
3436.000000,-0.674890,0.927113
3437.000000,-0.705941,0.892079
3438.000000,-0.648719,0.916454
3439.000000,-0.612987,0.826338
3440.000000,-0.684095,0.774250
3441.000000,-0.733900,0.812423
3442.000000,-0.649176,0.680214
3443.000000,-0.702721,0.733123
3444.000000,-0.669326,0.687317
3445.000000,-0.715789,0.609562
3446.000000,-0.650896,0.550511
3447.000000,-0.574630,0.532085
3448.000000,-0.675018,0.446977
3449.000000,-0.567778,0.447178
3450.000000,-0.530558,0.315346
3451.000000,-0.486398,0.334511
3452.000000,-0.617285,0.297944
3453.000000,-0.523462,0.191937
3454.000000,-0.631543,0.222534
3455.000000,-0.520735,0.176706
3456.000000,-0.445835,0.166483
3457.000000,-0.458512,0.107244
3458.000000,-0.431980,0.106451
3459.000000,-0.545768,0.046891
3460.000000,-0.468738,-0.003505
3461.000000,-0.427461,-0.010569
3462.000000,-0.462970,-0.041083
3463.000000,-0.440051,-0.046939
3464.000000,-0.412233,-0.125008
3465.000000,-0.462995,-0.156457
3466.000000,-0.426446,-0.172213
3467.000000,-0.468441,-0.193264
3468.000000,-0.388062,-0.232754
3469.000000,-0.356586,-0.238390
3470.000000,-0.331581,-0.304681
3471.000000,-0.361442,-0.281680
3472.000000,-0.406642,-0.385194
3473.000000,-0.375696,-0.389735
3474.000000,-0.398882,-0.438201
3475.000000,-0.271883,-0.458008
3476.000000,-0.255472,-0.480482
3477.000000,-0.372591,-0.499821
3478.000000,-0.260641,-0.623735
3479.000000,-0.227040,-0.602441
3480.000000,-0.313224,-0.698532
3481.000000,-0.229414,-0.711591
3482.000000,-0.258436,-0.795905
3483.000000,-0.194928,-0.831489
3484.000000,-0.220170,-0.842455
3485.000000,-0.129786,-0.855213
3486.000000,-0.207578,-0.910276
3487.000000,-0.238975,-1.021316
3488.000000,-0.277139,-1.113966
3489.000000,-0.146834,-1.078364
3490.000000,-0.068804,-1.050899
3491.000000,-0.099329,-1.045469
3492.000000,-0.077527,-1.125434
3493.000000,-0.162924,-1.132222
3494.000000,-0.032455,-1.082381
3495.000000,-0.024779,-1.086778
3496.000000,-0.108617,-1.117929
3497.000000,-0.004368,-1.124194
3498.000000,0.012005,-1.062035
3499.000000,-0.064746,-1.091440
3500.000000,0.109699,-1.059006
3501.000000,0.023797,-0.971660
3502.000000,0.049149,-0.917317
3503.000000,0.049055,-0.872166
3504.000000,-0.048997,-0.837813
3505.000000,0.160613,-0.753199
3506.000000,0.082622,-0.700177
3507.000000,0.161649,-0.600639
3508.000000,0.155690,-0.502188
3509.000000,0.096879,-0.435296
3510.000000,0.097584,-0.420544
3511.000000,0.113899,-0.262432
3512.000000,0.065819,-0.225755
3513.000000,0.146972,-0.083340
3514.000000,0.115464,0.008569
3515.000000,0.253873,0.095259
3516.000000,0.218902,0.156358
3517.000000,0.226824,0.274936
3518.000000,0.278413,0.349469
3519.000000,0.142519,0.439703
3520.000000,0.315346,0.527450
3521.000000,0.144878,0.590286
3522.000000,0.210600,0.639726
3523.000000,0.312094,0.765166
3524.000000,0.325717,0.788982
3525.000000,0.222990,0.855526
3526.000000,0.282669,0.944284
3527.000000,0.381105,0.993221
3528.000000,0.253352,1.061810
3529.000000,0.327316,1.102475
3530.000000,0.419470,1.052165
3531.000000,0.293080,1.130541
3532.000000,0.366940,1.178132
3533.000000,0.378988,1.129983
3534.000000,0.431879,1.170939
3535.000000,0.439682,1.167043
3536.000000,0.531230,1.153583
3537.000000,0.491061,1.157157
3538.000000,0.437275,1.119762
3539.000000,0.438071,1.112931
3540.000000,0.452425,1.034120
3541.000000,0.580584,1.036270
3542.000000,0.477726,0.992848
3543.000000,0.602860,0.947844
3544.000000,0.472459,0.975178
3545.000000,0.567975,0.901682
3546.000000,0.555456,0.865596
3547.000000,0.558387,0.820983
3548.000000,0.530714,0.754401
3549.000000,0.610161,0.737035
3550.000000,0.636604,0.690866
3551.000000,0.592328,0.669966
3552.000000,0.552782,0.576515
3553.000000,0.559548,0.552330
3554.000000,0.569490,0.518744
3555.000000,0.648196,0.441769
3556.000000,0.674733,0.374789
3557.000000,0.685375,0.389234
3558.000000,0.695102,0.309634
3559.000000,0.655018,0.355881
3560.000000,0.703609,0.280811
3561.000000,0.749725,0.301146
3562.000000,0.705878,0.221275
3563.000000,0.609451,0.165518
3564.000000,0.717214,0.228376
3565.000000,0.740492,0.185802
3566.000000,0.743888,0.122031
3567.000000,0.691989,0.047163
3568.000000,0.791752,0.050193
3569.000000,0.780922,0.062682
3570.000000,0.732940,-0.015654
3571.000000,0.731011,-0.020671
3572.000000,0.796611,-0.054518
3573.000000,0.835594,-0.101991
3574.000000,0.790557,-0.096597
3575.000000,0.789811,-0.209351
3576.000000,0.771946,-0.181273
3577.000000,0.874681,-0.280282
3578.000000,0.829477,-0.318839
3579.000000,0.906612,-0.325912
3580.000000,0.792465,-0.346936
3581.000000,0.753264,-0.423831
3582.000000,0.803771,-0.435918
3583.000000,0.913205,-0.502281
3584.000000,0.870733,-0.546112
3585.000000,0.838381,-0.612304
3586.000000,0.883578,-0.580399
3587.000000,0.880360,-0.669115
3588.000000,0.882075,-0.712414
3589.000000,0.925769,-0.742145
3590.000000,0.886358,-0.839522
3591.000000,0.868714,-0.852062
3592.000000,0.972024,-0.905078
3593.000000,0.943822,-0.929171
3594.000000,0.937077,-0.927475
3595.000000,0.921820,-0.927037
3596.000000,0.977500,-1.002783
3597.000000,0.925983,-0.973550
3598.000000,1.019795,-0.943721
3599.000000,0.912450,-0.976085
3600.000000,0.922285,-0.928545
3601.000000,0.916570,-0.939712
3602.000000,1.022516,-0.839559
3603.000000,1.009605,-0.825762
3604.000000,0.954712,-0.839545
3605.000000,0.816748,-0.765866
3606.000000,0.906298,-0.693514
3607.000000,0.891433,-0.753611
3608.000000,1.001921,-0.659341
3609.000000,1.034427,-0.529168
3610.000000,1.022447,-0.495728
3611.000000,0.990038,-0.430407
3612.000000,0.955726,-0.357844
3613.000000,1.025349,-0.310953
3614.000000,0.992140,-0.222913
3615.000000,1.071335,-0.128213
3616.000000,0.960471,-0.010764
3617.000000,1.057257,0.063338
3618.000000,1.025992,0.159031
3619.000000,1.006662,0.264737
3620.000000,0.949928,0.370619
3621.000000,1.078319,0.440504
3622.000000,0.916803,0.537392
3623.000000,1.061238,0.616421
3624.000000,1.065338,0.664105
3625.000000,0.947981,0.756520
3626.000000,0.937969,0.817882
3627.000000,0.999193,0.900008
3628.000000,1.015354,0.949487
3629.000000,1.027239,1.057245
3630.000000,1.004129,1.101866
3631.000000,0.929073,1.073229
3632.000000,0.948075,1.186818
3633.000000,0.994337,1.165976
3634.000000,1.004235,1.252548
3635.000000,0.922941,1.255030
3636.000000,0.977531,1.206474
3637.000000,1.018786,1.158727
3638.000000,0.985356,1.285978
3639.000000,0.965310,1.223826
3640.000000,0.940398,1.242487
3641.000000,0.983528,1.216123
3642.000000,0.985039,1.184747
3643.000000,0.937628,1.206679
3644.000000,1.002246,1.135941
3645.000000,0.985125,1.096574
3646.000000,0.985551,1.049140
3647.000000,0.969540,0.996265
3648.000000,0.987404,1.010232
3649.000000,1.000684,0.936495
3650.000000,0.984613,0.920106
3651.000000,0.893309,0.850455
3652.000000,0.982788,0.831258
3653.000000,0.918861,0.724389
3654.000000,0.803767,0.694475
3655.000000,0.896307,0.684005
3656.000000,1.041044,0.631182
3657.000000,0.913967,0.562754
3658.000000,1.044781,0.536749
3659.000000,0.959222,0.581987
3660.000000,0.888766,0.483974
3661.000000,0.918621,0.432967
3662.000000,0.806582,0.352865
3663.000000,0.886694,0.292856
3664.000000,0.812604,0.320964
3665.000000,0.908183,0.263727
3666.000000,0.881295,0.294155
3667.000000,0.924105,0.216631
3668.000000,0.908452,0.162898
3669.000000,0.923310,0.150390
3670.000000,0.783533,0.100873
3671.000000,0.896128,0.088728
3672.000000,0.823157,0.081993
3673.000000,0.873400,0.036117
3674.000000,0.729790,0.011816
3675.000000,0.836326,-0.064951
3676.000000,0.873787,-0.074930
3677.000000,0.807672,-0.112268
3678.000000,0.786796,-0.184779
3679.000000,0.758759,-0.165346
3680.000000,0.772236,-0.225085
3681.000000,0.699209,-0.271361
3682.000000,0.808730,-0.343078
3683.000000,0.719032,-0.440279
3684.000000,0.746076,-0.409438
3685.000000,0.676665,-0.453665
3686.000000,0.760914,-0.484757
3687.000000,0.668813,-0.544477
3688.000000,0.685890,-0.660417
3689.000000,0.666380,-0.655235
3690.000000,0.679708,-0.698283
3691.000000,0.572739,-0.710739
3692.000000,0.613080,-0.774887
3693.000000,0.681348,-0.829206
3694.000000,0.577618,-0.904440
3695.000000,0.679983,-0.901532
3696.000000,0.673582,-0.983524
3697.000000,0.609725,-0.940965
3698.000000,0.583480,-0.971073
3699.000000,0.641445,-1.024523
3700.000000,0.561839,-0.975974
3701.000000,0.571432,-1.005734
3702.000000,0.603648,-1.003952
3703.000000,0.583654,-1.004003
3704.000000,0.521714,-1.004915
3705.000000,0.565295,-1.043578
3706.000000,0.619082,-0.967761
3707.000000,0.553054,-0.912549
3708.000000,0.519364,-0.893962
3709.000000,0.425743,-0.864936
3710.000000,0.392762,-0.796026
3711.000000,0.376609,-0.762099
3712.000000,0.419612,-0.707331
3713.000000,0.461754,-0.663282
3714.000000,0.470840,-0.593611
3715.000000,0.434776,-0.480584
3716.000000,0.347785,-0.446214
3717.000000,0.434868,-0.308899
3718.000000,0.440567,-0.285917
3719.000000,0.287395,-0.109703
3720.000000,0.341285,-0.126433
3721.000000,0.430247,-0.015287
3722.000000,0.351029,0.071750
3723.000000,0.335817,0.193926
3724.000000,0.238244,0.276781
3725.000000,0.302753,0.380825
3726.000000,0.281579,0.461832
3727.000000,0.297141,0.557864
3728.000000,0.252553,0.552292
3729.000000,0.262734,0.701298
3730.000000,0.268397,0.697350
3731.000000,0.159482,0.817702
3732.000000,0.131698,0.875299
3733.000000,0.246203,0.884132
3734.000000,0.155913,0.950443
3735.000000,0.133409,1.050816
3736.000000,0.209775,1.044584
3737.000000,0.119978,1.099344
3738.000000,0.216167,1.069509
3739.000000,0.142215,1.073758
3740.000000,0.146600,1.070036
3741.000000,0.054000,1.131782
3742.000000,0.091704,1.098350
3743.000000,0.018951,1.106721
3744.000000,0.103894,1.064242
3745.000000,0.035928,1.081687
3746.000000,0.101910,1.096045
3747.000000,-0.005380,1.002199
3748.000000,0.017073,0.976277
3749.000000,-0.006333,0.960610
3750.000000,0.053114,0.925970
3751.000000,0.005456,0.856950
3752.000000,-0.047224,0.802535
3753.000000,-0.035826,0.756384
3754.000000,0.014482,0.753442
3755.000000,-0.073645,0.690593
3756.000000,-0.155485,0.601701
3757.000000,-0.110664,0.586815
3758.000000,-0.111259,0.582074
3759.000000,-0.154253,0.484596
3760.000000,-0.121317,0.469512
3761.000000,-0.140634,0.441958
3762.000000,-0.092689,0.324428
3763.000000,-0.154996,0.388521
3764.000000,-0.189036,0.281996
3765.000000,-0.226348,0.296679
3766.000000,-0.139206,0.202555
3767.000000,-0.173388,0.191689
3768.000000,-0.173919,0.161234
3769.000000,-0.298950,0.104258
3770.000000,-0.329470,0.099002
3771.000000,-0.194180,0.065496
3772.000000,-0.242106,0.010203
3773.000000,-0.337457,-0.004548
3774.000000,-0.261752,-0.017987
3775.000000,-0.266049,-0.049348
3776.000000,-0.349711,-0.180528
3777.000000,-0.292427,-0.191893
3778.000000,-0.269902,-0.110320
3779.000000,-0.378129,-0.198296
3780.000000,-0.302749,-0.267061
3781.000000,-0.422440,-0.323635
3782.000000,-0.288940,-0.348480
3783.000000,-0.418887,-0.350155
3784.000000,-0.415884,-0.368792
3785.000000,-0.528301,-0.442338
3786.000000,-0.369444,-0.486091
3787.000000,-0.365654,-0.535297
3788.000000,-0.476382,-0.575653
3789.000000,-0.440495,-0.623178
3790.000000,-0.489982,-0.692482
3791.000000,-0.545232,-0.640286
3792.000000,-0.367024,-0.780793
3793.000000,-0.472545,-0.834920
3794.000000,-0.492011,-0.909672
3795.000000,-0.599419,-0.893571
3796.000000,-0.488674,-0.904882
3797.000000,-0.486818,-0.938460
3798.000000,-0.578050,-1.065990
3799.000000,-0.597001,-1.080619
3800.000000,-0.561047,-1.123862
3801.000000,-0.612045,-1.115934
3802.000000,-0.573208,-1.143055
3803.000000,-0.591133,-1.191401
3804.000000,-0.675999,-1.190216
3805.000000,-0.638689,-1.245024
3806.000000,-0.634810,-1.215145
3807.000000,-0.670152,-1.192740
3808.000000,-0.702722,-1.162353
3809.000000,-0.646239,-1.153747
3810.000000,-0.724890,-1.140480
3811.000000,-0.672029,-1.166880
3812.000000,-0.681290,-1.107027
3813.000000,-0.723355,-1.013432
3814.000000,-0.692834,-1.037224
3815.000000,-0.678176,-0.927537
3816.000000,-0.651538,-0.845931
3817.000000,-0.810827,-0.868742
3818.000000,-0.692961,-0.748307
3819.000000,-0.785229,-0.693938
3820.000000,-0.835651,-0.606143
3821.000000,-0.739543,-0.496780
3822.000000,-0.758371,-0.425016
3823.000000,-0.753423,-0.397127
3824.000000,-0.819446,-0.367562
3825.000000,-0.807786,-0.240712
3826.000000,-0.809536,-0.100745
3827.000000,-0.813106,0.011459
3828.000000,-0.787750,0.012054
3829.000000,-0.744020,0.114799
3830.000000,-0.912073,0.201108
3831.000000,-0.836686,0.348803
3832.000000,-0.903909,0.437307
3833.000000,-0.806603,0.483770
3834.000000,-0.880969,0.580609
3835.000000,-0.774865,0.628844
3836.000000,-0.885032,0.700938
3837.000000,-0.886802,0.698520
3838.000000,-0.940528,0.767431
3839.000000,-0.922108,0.856237
3840.000000,-0.902760,0.864848
3841.000000,-0.900338,0.894710
3842.000000,-0.840495,0.845805
3843.000000,-0.911173,0.913948
3844.000000,-0.869176,0.967213
3845.000000,-0.992393,0.944102
3846.000000,-0.919530,0.997300
3847.000000,-0.845061,0.878599
3848.000000,-0.887919,0.930057
3849.000000,-0.935302,0.958225
3850.000000,-0.937600,0.885207
3851.000000,-0.893977,0.878480
3852.000000,-0.936975,0.905545
3853.000000,-1.031099,0.813455
3854.000000,-1.015904,0.792613
3855.000000,-0.879708,0.774209
3856.000000,-1.031760,0.712143
3857.000000,-0.947608,0.614870
3858.000000,-0.954887,0.574986
3859.000000,-1.013648,0.542128
3860.000000,-0.952074,0.522580
3861.000000,-1.073821,0.484835
3862.000000,-0.988075,0.383950
3863.000000,-0.950933,0.411148
3864.000000,-1.001235,0.363243
3865.000000,-1.005321,0.331768
3866.000000,-0.886868,0.230314
3867.000000,-1.003098,0.247335
3868.000000,-0.992955,0.244532
3869.000000,-1.017689,0.094203
3870.000000,-1.014458,0.147602
3871.000000,-0.976908,0.089174
3872.000000,-0.977121,0.051680
3873.000000,-0.987589,-0.007435
3874.000000,-0.935239,-0.030188
3875.000000,-0.931723,-0.022805
3876.000000,-0.995920,-0.089123
3877.000000,-0.969216,-0.119290
3878.000000,-1.051494,-0.161357
3879.000000,-1.049246,-0.084733
3880.000000,-1.032839,-0.177502
3881.000000,-0.968946,-0.222079
3882.000000,-0.948898,-0.279276
3883.000000,-0.949047,-0.312552
3884.000000,-0.984948,-0.320694
3885.000000,-0.949052,-0.330827
3886.000000,-0.970768,-0.396727
3887.000000,-1.037851,-0.478886
3888.000000,-0.921670,-0.522028
3889.000000,-0.967872,-0.509070
3890.000000,-0.978260,-0.548240
3891.000000,-0.982549,-0.668752
3892.000000,-0.977099,-0.587741
3893.000000,-0.998489,-0.702675
3894.000000,-0.928690,-0.734218
3895.000000,-0.991832,-0.764345
3896.000000,-0.991432,-0.846850
3897.000000,-0.928790,-0.851829
3898.000000,-0.971969,-0.858643
3899.000000,-0.952137,-0.875465
3900.000000,-0.933936,-0.965905
3901.000000,-0.989255,-1.041359
3902.000000,-0.984722,-1.036674
3903.000000,-0.979355,-1.131750
3904.000000,-0.947889,-1.095472
3905.000000,-0.979389,-1.147834
3906.000000,-0.904591,-1.164949
3907.000000,-0.852509,-1.204642
3908.000000,-0.980013,-1.185560
